frequency	e'	e''	u'	u''
2000000000.0000	   5.8734	   4.6414	   1.1408	   0.1621
2080000000.0000	   5.8000	   4.5530	   1.1322	   0.1629
2160000000.0000	   5.7417	   4.4748	   1.1358	   0.1558
2240000000.0000	   5.6881	   4.3848	   1.1362	   0.1583
2320000000.0000	   5.6131	   4.3212	   1.1374	   0.1474
2400000000.0000	   5.5850	   4.2532	   1.1302	   0.1443
2480000000.0000	   5.5258	   4.1818	   1.1244	   0.1475
2560000000.0000	   5.4858	   4.1252	   1.1243	   0.1380
2640000000.0000	   5.4512	   4.0608	   1.1063	   0.1445
2720000000.0000	   5.4030	   4.0113	   1.1109	   0.1408
2800000000.0000	   5.3984	   3.9591	   1.0904	   0.1391
2880000000.0000	   5.3567	   3.9057	   1.0844	   0.1431
2960000000.0000	   5.3475	   3.8708	   1.0706	   0.1331
3040000000.0000	   5.3207	   3.8148	   1.0590	   0.1387
3120000000.0000	   5.2916	   3.7955	   1.0526	   0.1278
3200000000.0000	   5.2806	   3.7575	   1.0289	   0.1228
3280000000.0000	   5.2510	   3.7337	   1.0238	   0.1253
3360000000.0000	   5.2316	   3.7136	   1.0091	   0.1099
3440000000.0000	   5.1922	   3.6855	   0.9968	   0.1063
3520000000.0000	   5.1690	   3.6798	   0.9889	   0.0960
3600000000.0000	   5.1302	   3.6465	   0.9806	   0.0868
3680000000.0000	   5.0774	   3.6345	   0.9809	   0.0752
3760000000.0000	   5.0321	   3.6191	   0.9739	   0.0598
3840000000.0000	   4.9757	   3.5950	   0.9752	   0.0526
3920000000.0000	   4.9241	   3.5719	   0.9762	   0.0423
4000000000.0000	   4.8575	   3.5393	   0.9870	   0.0351
4080000000.0000	   4.8006	   3.5151	   0.9943	   0.0272
4160000000.0000	   4.7396	   3.4729	   1.0043	   0.0229
4240000000.0000	   4.6858	   3.4342	   1.0172	   0.0241
4320000000.0000	   4.6286	   3.3827	   1.0291	   0.0251
4400000000.0000	   4.5744	   3.3383	   1.0443	   0.0293
4480000000.0000	   4.5274	   3.2911	   1.0520	   0.0335
4560000000.0000	   4.4780	   3.2486	   1.0633	   0.0431
4640000000.0000	   4.4492	   3.2063	   1.0707	   0.0494
4720000000.0000	   4.4090	   3.1637	   1.0798	   0.0606
4800000000.0000	   4.3851	   3.1425	   1.0833	   0.0637
4880000000.0000	   4.3614	   3.0980	   1.0856	   0.0738
4960000000.0000	   4.3321	   3.0875	   1.0874	   0.0741
5040000000.0000	   4.3273	   3.0581	   1.0822	   0.0797
5120000000.0000	   4.2958	   3.0419	   1.0865	   0.0847
5200000000.0000	   4.2825	   3.0356	   1.0809	   0.0793
5280000000.0000	   4.2660	   3.0175	   1.0786	   0.0826
5360000000.0000	   4.2483	   3.0208	   1.0747	   0.0741
5440000000.0000	   4.2324	   3.0100	   1.0665	   0.0706
5520000000.0000	   4.2116	   3.0153	   1.0652	   0.0671
5600000000.0000	   4.2026	   3.0143	   1.0557	   0.0586
5680000000.0000	   4.1814	   3.0022	   1.0566	   0.0540
5760000000.0000	   4.1628	   3.0132	   1.0481	   0.0426
5840000000.0000	   4.1426	   3.0050	   1.0444	   0.0369
5920000000.0000	   4.1323	   3.0100	   1.0441	   0.0263
6000000000.0000	   4.1147	   2.9932	   1.0381	   0.0169
6080000000.0000	   4.0881	   3.0019	   1.0369	   0.0069
6160000000.0000	   4.0870	   2.9894	   1.0330	   0.0020
6240000000.0000	   4.0609	   2.9780	   1.0361	  -0.0073
6320000000.0000	   4.0491	   2.9711	   1.0328	  -0.0176
6400000000.0000	   4.0308	   2.9553	   1.0315	  -0.0204
6480000000.0000	   4.0170	   2.9457	   1.0345	  -0.0289
6560000000.0000	   4.0040	   2.9199	   1.0341	  -0.0330
6640000000.0000	   3.9789	   2.9165	   1.0361	  -0.0390
6720000000.0000	   3.9778	   2.9000	   1.0346	  -0.0415
6800000000.0000	   3.9602	   2.8827	   1.0372	  -0.0431
6880000000.0000	   3.9451	   2.8637	   1.0390	  -0.0472
6960000000.0000	   3.9336	   2.8452	   1.0412	  -0.0471
7040000000.0000	   3.9254	   2.8340	   1.0420	  -0.0508
7120000000.0000	   3.9124	   2.8039	   1.0419	  -0.0494
7200000000.0000	   3.9048	   2.7974	   1.0457	  -0.0505
7280000000.0000	   3.8983	   2.7684	   1.0447	  -0.0487
7360000000.0000	   3.8789	   2.7556	   1.0497	  -0.0496
7440000000.0000	   3.8794	   2.7415	   1.0463	  -0.0491
7520000000.0000	   3.8601	   2.7208	   1.0505	  -0.0454
7600000000.0000	   3.8552	   2.7134	   1.0508	  -0.0477
7680000000.0000	   3.8430	   2.6837	   1.0515	  -0.0422
7760000000.0000	   3.8235	   2.6844	   1.0553	  -0.0423
7840000000.0000	   3.8240	   2.6588	   1.0546	  -0.0405
7920000000.0000	   3.7945	   2.6502	   1.0592	  -0.0377
8000000000.0000	   3.7893	   2.6460	   1.0585	  -0.0384
8080000000.0000	   3.7719	   2.6254	   1.0603	  -0.0334
8160000000.0000	   3.7516	   2.6219	   1.0629	  -0.0337
8240000000.0000	   3.7420	   2.6092	   1.0628	  -0.0297
8320000000.0000	   3.7179	   2.6024	   1.0693	  -0.0292
8400000000.0000	   3.7027	   2.5933	   1.0694	  -0.0304
8480000000.0000	   3.6799	   2.5874	   1.0713	  -0.0286
8560000000.0000	   3.6577	   2.5839	   1.0725	  -0.0260
8640000000.0000	   3.6360	   2.5721	   1.0764	  -0.0260
8720000000.0000	   3.6090	   2.5754	   1.0797	  -0.0271
8800000000.0000	   3.5856	   2.5722	   1.0817	  -0.0266
8880000000.0000	   3.5665	   2.5762	   1.0829	  -0.0281
8960000000.0000	   3.5445	   2.5625	   1.0856	  -0.0272
9040000000.0000	   3.5170	   2.5732	   1.0892	  -0.0317
9120000000.0000	   3.5044	   2.5669	   1.0886	  -0.0325
9200000000.0000	   3.4722	   2.5653	   1.0927	  -0.0358
9280000000.0000	   3.4632	   2.5697	   1.0907	  -0.0375
9360000000.0000	   3.4362	   2.5640	   1.0951	  -0.0376
9440000000.0000	   3.4213	   2.5725	   1.0948	  -0.0454
9520000000.0000	   3.4039	   2.5560	   1.0942	  -0.0455
9600000000.0000	   3.3831	   2.5610	   1.0946	  -0.0488
9680000000.0000	   3.3866	   2.5531	   1.0909	  -0.0496
9760000000.0000	   3.3629	   2.5369	   1.0943	  -0.0488
9840000000.0000	   3.3468	   2.5344	   1.0923	  -0.0544
9920000000.0000	   3.3356	   2.5179	   1.0930	  -0.0517
10000000000.0000	   3.3307	   2.5234	   1.0925	  -0.0564
10080000000.0000	   3.3391	   2.4969	   1.0886	  -0.0540
10160000000.0000	   3.3182	   2.4926	   1.0912	  -0.0556
10240000000.0000	   3.3197	   2.4787	   1.0858	  -0.0571
10320000000.0000	   3.3095	   2.4625	   1.0879	  -0.0553
10400000000.0000	   3.3065	   2.4574	   1.0858	  -0.0572
10480000000.0000	   3.3034	   2.4334	   1.0852	  -0.0559
10560000000.0000	   3.2890	   2.4306	   1.0893	  -0.0566
10640000000.0000	   3.2783	   2.4185	   1.0879	  -0.0570
10720000000.0000	   3.2817	   2.4156	   1.0881	  -0.0569
10800000000.0000	   3.2634	   2.4004	   1.0905	  -0.0570
10880000000.0000	   3.2509	   2.4026	   1.0919	  -0.0598
10960000000.0000	   3.2409	   2.3906	   1.0939	  -0.0583
11040000000.0000	   3.2172	   2.3898	   1.0970	  -0.0611
11120000000.0000	   3.2182	   2.3852	   1.0971	  -0.0629
11200000000.0000	   3.1805	   2.3761	   1.1036	  -0.0614
11280000000.0000	   3.1702	   2.3912	   1.1040	  -0.0677
11360000000.0000	   3.1571	   2.3763	   1.1087	  -0.0648
11440000000.0000	   3.1230	   2.3930	   1.1147	  -0.0693
11520000000.0000	   3.1249	   2.3858	   1.1127	  -0.0690
11600000000.0000	   3.0803	   2.3837	   1.1232	  -0.0677
11680000000.0000	   3.0693	   2.4071	   1.1216	  -0.0707
11760000000.0000	   3.0319	   2.3689	   1.1242	  -0.0588
11840000000.0000	   2.9898	   2.3938	   1.1222	  -0.0659
11920000000.0000	   3.0062	   2.3627	   1.1037	  -0.0639
12000000000.0000	   2.9818	   2.3301	   1.1049	  -0.0799
12080000000.0000	   2.9989	   2.3618	   1.1125	  -0.0996
12160000000.0000	   2.9807	   2.3584	   1.1223	  -0.0969
12240000000.0000	   2.9561	   2.3767	   1.1294	  -0.1001
12320000000.0000	   2.9505	   2.3692	   1.1304	  -0.0976
12400000000.0000	   2.9203	   2.3628	   1.1367	  -0.0960
12480000000.0000	   2.9073	   2.3666	   1.1354	  -0.0994
12560000000.0000	   2.8975	   2.3507	   1.1371	  -0.0957
12640000000.0000	   2.8761	   2.3496	   1.1388	  -0.0982
12720000000.0000	   2.8749	   2.3434	   1.1370	  -0.0990
12800000000.0000	   2.8605	   2.3327	   1.1392	  -0.0962
12880000000.0000	   2.8456	   2.3272	   1.1408	  -0.0995
12960000000.0000	   2.8458	   2.3182	   1.1395	  -0.0984
13040000000.0000	   2.8292	   2.2980	   1.1428	  -0.0978
13120000000.0000	   2.8257	   2.3104	   1.1403	  -0.1030
13200000000.0000	   2.8324	   2.2824	   1.1387	  -0.0961
13280000000.0000	   2.8019	   2.2854	   1.1424	  -0.1025
13360000000.0000	   2.8257	   2.2873	   1.1344	  -0.1008
13440000000.0000	   2.8035	   2.2634	   1.1389	  -0.0976
13520000000.0000	   2.8173	   2.2884	   1.1330	  -0.1036
13600000000.0000	   2.8317	   2.2553	   1.1304	  -0.0949
13680000000.0000	   2.8126	   2.2625	   1.1334	  -0.1008
13760000000.0000	   2.8442	   2.2594	   1.1243	  -0.0987
13840000000.0000	   2.8349	   2.2390	   1.1271	  -0.0951
13920000000.0000	   2.8535	   2.2549	   1.1202	  -0.0982
14000000000.0000	   2.8594	   2.2321	   1.1174	  -0.0901
14080000000.0000	   2.8497	   2.2516	   1.1137	  -0.0955
14160000000.0000	   2.8715	   2.2405	   1.1050	  -0.0913
14240000000.0000	   2.8484	   2.2331	   1.1069	  -0.0925
14320000000.0000	   2.8684	   2.2291	   1.0990	  -0.0939
14400000000.0000	   2.8646	   2.2092	   1.1032	  -0.0924
14480000000.0000	   2.8600	   2.2076	   1.1044	  -0.0921
14560000000.0000	   2.8524	   2.1980	   1.1054	  -0.0887
14640000000.0000	   2.8386	   2.1877	   1.1031	  -0.0843
14720000000.0000	   2.8304	   2.1661	   1.0990	  -0.0796
14800000000.0000	   2.8144	   2.1565	   1.0987	  -0.0825
14880000000.0000	   2.8133	   2.1323	   1.0960	  -0.0809
14960000000.0000	   2.7884	   2.1283	   1.1022	  -0.0856
15040000000.0000	   2.8044	   2.1169	   1.0996	  -0.0845
15120000000.0000	   2.7749	   2.1012	   1.1062	  -0.0834
15200000000.0000	   2.7709	   2.1143	   1.1057	  -0.0904
15280000000.0000	   2.7611	   2.0867	   1.1083	  -0.0843
15360000000.0000	   2.7303	   2.1014	   1.1124	  -0.0935
15440000000.0000	   2.7375	   2.0875	   1.1108	  -0.0900
15520000000.0000	   2.6993	   2.0873	   1.1177	  -0.0958
15600000000.0000	   2.7100	   2.0974	   1.1138	  -0.0987
15680000000.0000	   2.6840	   2.0702	   1.1193	  -0.0966
15760000000.0000	   2.6649	   2.1008	   1.1202	  -0.1085
15840000000.0000	   2.6733	   2.0835	   1.1161	  -0.1037
15920000000.0000	   2.6399	   2.0911	   1.1221	  -0.1109
16000000000.0000	   2.6610	   2.0993	   1.1152	  -0.1124
16080000000.0000	   2.6294	   2.0795	   1.1218	  -0.1130
16160000000.0000	   2.6313	   2.1078	   1.1162	  -0.1213
16240000000.0000	   2.6349	   2.0908	   1.1164	  -0.1157
16320000000.0000	   2.6216	   2.1003	   1.1170	  -0.1235
16400000000.0000	   2.6323	   2.0872	   1.1138	  -0.1217
16480000000.0000	   2.6172	   2.0849	   1.1146	  -0.1233
16560000000.0000	   2.6288	   2.0903	   1.1113	  -0.1248
16640000000.0000	   2.6256	   2.0765	   1.1125	  -0.1228
16720000000.0000	   2.6231	   2.0700	   1.1112	  -0.1243
16800000000.0000	   2.6159	   2.0598	   1.1116	  -0.1228
16880000000.0000	   2.6119	   2.0524	   1.1120	  -0.1225
16960000000.0000	   2.6158	   2.0354	   1.1117	  -0.1221
17040000000.0000	   2.6043	   2.0270	   1.1133	  -0.1224
17120000000.0000	   2.6059	   2.0054	   1.1147	  -0.1181
17200000000.0000	   2.5843	   1.9974	   1.1189	  -0.1212
17280000000.0000	   2.5940	   1.9868	   1.1162	  -0.1181
17360000000.0000	   2.5697	   1.9637	   1.1253	  -0.1181
17440000000.0000	   2.5671	   1.9683	   1.1247	  -0.1193
17520000000.0000	   2.5521	   1.9336	   1.1310	  -0.1149
17600000000.0000	   2.5378	   1.9395	   1.1330	  -0.1206
17680000000.0000	   2.5428	   1.9135	   1.1338	  -0.1139
17760000000.0000	   2.5086	   1.9055	   1.1442	  -0.1182
17840000000.0000	   2.5230	   1.9037	   1.1390	  -0.1172
17920000000.0000	   2.4984	   1.8693	   1.1493	  -0.1135
18000000000.0000	   2.4906	   1.8923	   1.1491	  -0.1210
