frequency	e'	e''	u'	u''
2000000000.0000	  14.7998	  17.4428	   1.1847	   0.1133
2080000000.0000	  14.4707	  17.1271	   1.1797	   0.1140
2160000000.0000	  14.2110	  16.8836	   1.1898	   0.1045
2240000000.0000	  13.9758	  16.5975	   1.1950	   0.1039
2320000000.0000	  13.6887	  16.3486	   1.1989	   0.0945
2400000000.0000	  13.5216	  16.1300	   1.1994	   0.0923
2480000000.0000	  13.2880	  15.8815	   1.1973	   0.0983
2560000000.0000	  13.1351	  15.7067	   1.1998	   0.0929
2640000000.0000	  12.9571	  15.4839	   1.1878	   0.1098
2720000000.0000	  12.7994	  15.3650	   1.1932	   0.1117
2800000000.0000	  12.7135	  15.2025	   1.1758	   0.1226
2880000000.0000	  12.5359	  15.0980	   1.1695	   0.1344
2960000000.0000	  12.4613	  15.0536	   1.1502	   0.1367
3040000000.0000	  12.3063	  14.9499	   1.1293	   0.1533
3120000000.0000	  12.1357	  14.9987	   1.1079	   0.1502
3200000000.0000	  11.9524	  14.9669	   1.0672	   0.1520
3280000000.0000	  11.6408	  15.0177	   1.0478	   0.1481
3360000000.0000	  11.3808	  15.0203	   1.0130	   0.1206
3440000000.0000	  10.9605	  14.8996	   0.9899	   0.1052
3520000000.0000	  10.5797	  14.8259	   0.9814	   0.0739
3600000000.0000	  10.2322	  14.5737	   0.9774	   0.0471
3680000000.0000	   9.8761	  14.3312	   0.9893	   0.0201
3760000000.0000	   9.6177	  14.0233	   0.9946	   0.0012
3840000000.0000	   9.3648	  13.7226	   1.0141	  -0.0051
3920000000.0000	   9.2048	  13.4531	   1.0291	  -0.0133
4000000000.0000	   9.0599	  13.1655	   1.0455	  -0.0131
4080000000.0000	   8.9198	  12.9348	   1.0590	  -0.0088
4160000000.0000	   8.8058	  12.7137	   1.0715	  -0.0043
4240000000.0000	   8.7151	  12.5457	   1.0842	   0.0024
4320000000.0000	   8.6182	  12.3509	   1.0911	   0.0091
4400000000.0000	   8.5112	  12.2146	   1.1009	   0.0145
4480000000.0000	   8.4087	  12.0658	   1.1029	   0.0222
4560000000.0000	   8.2805	  11.9455	   1.1104	   0.0289
4640000000.0000	   8.1851	  11.8394	   1.1132	   0.0336
4720000000.0000	   8.0521	  11.7214	   1.1192	   0.0416
4800000000.0000	   7.9273	  11.6716	   1.1227	   0.0404
4880000000.0000	   7.8256	  11.5577	   1.1248	   0.0457
4960000000.0000	   7.6712	  11.5130	   1.1288	   0.0423
5040000000.0000	   7.5922	  11.4361	   1.1255	   0.0444
5120000000.0000	   7.4400	  11.3581	   1.1313	   0.0454
5200000000.0000	   7.3410	  11.3227	   1.1288	   0.0389
5280000000.0000	   7.2224	  11.2233	   1.1291	   0.0419
5360000000.0000	   7.0997	  11.1988	   1.1291	   0.0326
5440000000.0000	   7.0011	  11.1265	   1.1239	   0.0301
5520000000.0000	   6.8935	  11.0864	   1.1241	   0.0261
5600000000.0000	   6.8239	  11.0282	   1.1159	   0.0217
5680000000.0000	   6.7099	  10.9556	   1.1172	   0.0181
5760000000.0000	   6.6302	  10.9239	   1.1083	   0.0101
5840000000.0000	   6.5425	  10.8491	   1.1052	   0.0070
5920000000.0000	   6.4665	  10.8158	   1.1026	   0.0004
6000000000.0000	   6.4077	  10.7468	   1.0946	  -0.0067
6080000000.0000	   6.2934	  10.7046	   1.0909	  -0.0134
6160000000.0000	   6.2732	  10.6518	   1.0828	  -0.0174
6240000000.0000	   6.1623	  10.5816	   1.0832	  -0.0251
6320000000.0000	   6.1059	  10.5337	   1.0751	  -0.0343
6400000000.0000	   6.0162	  10.4564	   1.0710	  -0.0383
6480000000.0000	   5.9434	  10.3959	   1.0696	  -0.0484
6560000000.0000	   5.8951	  10.2828	   1.0655	  -0.0532
6640000000.0000	   5.7870	  10.2010	   1.0662	  -0.0612
6720000000.0000	   5.7534	  10.1080	   1.0630	  -0.0652
6800000000.0000	   5.6818	  10.0163	   1.0664	  -0.0711
6880000000.0000	   5.6440	   9.8978	   1.0672	  -0.0745
6960000000.0000	   5.5965	   9.7966	   1.0699	  -0.0769
7040000000.0000	   5.5705	   9.7260	   1.0709	  -0.0820
7120000000.0000	   5.5516	   9.6015	   1.0717	  -0.0801
7200000000.0000	   5.5064	   9.5406	   1.0763	  -0.0824
7280000000.0000	   5.5037	   9.4362	   1.0763	  -0.0797
7360000000.0000	   5.4417	   9.3668	   1.0822	  -0.0812
7440000000.0000	   5.4493	   9.3025	   1.0791	  -0.0800
7520000000.0000	   5.3833	   9.2042	   1.0854	  -0.0764
7600000000.0000	   5.3660	   9.1693	   1.0839	  -0.0793
7680000000.0000	   5.3416	   9.0551	   1.0861	  -0.0726
7760000000.0000	   5.2659	   9.0035	   1.0900	  -0.0727
7840000000.0000	   5.2584	   8.9292	   1.0897	  -0.0705
7920000000.0000	   5.1665	   8.8527	   1.0957	  -0.0684
8000000000.0000	   5.1370	   8.8116	   1.0944	  -0.0686
8080000000.0000	   5.0706	   8.7107	   1.0990	  -0.0637
8160000000.0000	   4.9999	   8.6687	   1.1014	  -0.0657
8240000000.0000	   4.9633	   8.5884	   1.1019	  -0.0609
8320000000.0000	   4.8826	   8.5140	   1.1094	  -0.0609
8400000000.0000	   4.8294	   8.4430	   1.1101	  -0.0615
8480000000.0000	   4.7370	   8.3789	   1.1153	  -0.0617
8560000000.0000	   4.6832	   8.3150	   1.1160	  -0.0595
8640000000.0000	   4.6238	   8.2380	   1.1204	  -0.0598
8720000000.0000	   4.5360	   8.1716	   1.1254	  -0.0610
8800000000.0000	   4.4646	   8.1178	   1.1288	  -0.0626
8880000000.0000	   4.3984	   8.0627	   1.1312	  -0.0638
8960000000.0000	   4.3513	   7.9848	   1.1343	  -0.0636
9040000000.0000	   4.2722	   7.9472	   1.1381	  -0.0692
9120000000.0000	   4.2387	   7.8865	   1.1380	  -0.0699
9200000000.0000	   4.1696	   7.8238	   1.1420	  -0.0739
9280000000.0000	   4.1428	   7.7881	   1.1401	  -0.0753
9360000000.0000	   4.0783	   7.7156	   1.1460	  -0.0759
9440000000.0000	   4.0375	   7.7142	   1.1439	  -0.0860
9520000000.0000	   4.0378	   7.6254	   1.1422	  -0.0825
9600000000.0000	   3.9849	   7.6025	   1.1422	  -0.0881
9680000000.0000	   4.0080	   7.5712	   1.1359	  -0.0882
9760000000.0000	   3.9687	   7.5036	   1.1400	  -0.0885
9840000000.0000	   3.9592	   7.4718	   1.1357	  -0.0930
9920000000.0000	   3.9429	   7.4039	   1.1373	  -0.0905
10000000000.0000	   3.9299	   7.4046	   1.1344	  -0.0966
10080000000.0000	   3.9782	   7.3541	   1.1283	  -0.0935
10160000000.0000	   3.9242	   7.3108	   1.1327	  -0.0964
10240000000.0000	   3.9511	   7.2845	   1.1241	  -0.0973
10320000000.0000	   3.9336	   7.2250	   1.1272	  -0.0957
10400000000.0000	   3.9261	   7.2061	   1.1241	  -0.0984
10480000000.0000	   3.9359	   7.1536	   1.1226	  -0.0969
10560000000.0000	   3.8777	   7.1097	   1.1290	  -0.0987
10640000000.0000	   3.8676	   7.0649	   1.1276	  -0.0989
10720000000.0000	   3.8510	   7.0405	   1.1281	  -0.1006
10800000000.0000	   3.8142	   6.9796	   1.1323	  -0.1001
10880000000.0000	   3.7745	   6.9628	   1.1331	  -0.1048
10960000000.0000	   3.7648	   6.9081	   1.1349	  -0.1024
11040000000.0000	   3.7001	   6.8667	   1.1399	  -0.1068
11120000000.0000	   3.6899	   6.8484	   1.1390	  -0.1104
11200000000.0000	   3.6126	   6.7647	   1.1496	  -0.1078
11280000000.0000	   3.5637	   6.7791	   1.1486	  -0.1178
11360000000.0000	   3.5413	   6.7005	   1.1556	  -0.1139
11440000000.0000	   3.4323	   6.6819	   1.1653	  -0.1234
11520000000.0000	   3.4437	   6.6531	   1.1619	  -0.1227
11600000000.0000	   3.3460	   6.5813	   1.1764	  -0.1245
11680000000.0000	   3.3008	   6.5822	   1.1761	  -0.1286
11760000000.0000	   3.3014	   6.4398	   1.1822	  -0.1107
11840000000.0000	   3.2029	   6.4300	   1.1833	  -0.1195
11920000000.0000	   3.3039	   6.4138	   1.1572	  -0.1121
12000000000.0000	   3.2706	   6.3966	   1.1520	  -0.1309
12080000000.0000	   3.1770	   6.4845	   1.1575	  -0.1633
12160000000.0000	   3.1295	   6.4141	   1.1720	  -0.1630
12240000000.0000	   3.0362	   6.3834	   1.1836	  -0.1712
12320000000.0000	   3.0410	   6.3302	   1.1866	  -0.1668
12400000000.0000	   2.9734	   6.2614	   1.1977	  -0.1671
12480000000.0000	   2.9559	   6.2383	   1.1974	  -0.1700
12560000000.0000	   2.9568	   6.1752	   1.2005	  -0.1644
12640000000.0000	   2.9183	   6.1341	   1.2044	  -0.1676
12720000000.0000	   2.9259	   6.1143	   1.2013	  -0.1681
12800000000.0000	   2.9184	   6.0607	   1.2044	  -0.1637
12880000000.0000	   2.8927	   6.0331	   1.2070	  -0.1686
12960000000.0000	   2.9102	   6.0113	   1.2037	  -0.1667
13040000000.0000	   2.8987	   5.9539	   1.2078	  -0.1660
13120000000.0000	   2.8770	   5.9623	   1.2054	  -0.1733
13200000000.0000	   2.9160	   5.9108	   1.2031	  -0.1644
13280000000.0000	   2.8624	   5.8846	   1.2081	  -0.1728
13360000000.0000	   2.9025	   5.9093	   1.1969	  -0.1715
13440000000.0000	   2.8847	   5.8298	   1.2044	  -0.1668
13520000000.0000	   2.8706	   5.8929	   1.1961	  -0.1780
13600000000.0000	   2.9336	   5.8386	   1.1923	  -0.1659
13680000000.0000	   2.8740	   5.8273	   1.1973	  -0.1762
13760000000.0000	   2.9387	   5.8426	   1.1850	  -0.1724
13840000000.0000	   2.9304	   5.7870	   1.1904	  -0.1694
13920000000.0000	   2.9405	   5.8342	   1.1812	  -0.1754
14000000000.0000	   2.9901	   5.7786	   1.1789	  -0.1627
14080000000.0000	   2.9466	   5.8091	   1.1764	  -0.1722
14160000000.0000	   3.0028	   5.8094	   1.1648	  -0.1662
14240000000.0000	   2.9722	   5.7559	   1.1702	  -0.1653
14320000000.0000	   2.9959	   5.7757	   1.1608	  -0.1672
14400000000.0000	   2.9963	   5.7234	   1.1661	  -0.1653
14480000000.0000	   2.9799	   5.6985	   1.1702	  -0.1651
14560000000.0000	   2.9834	   5.6427	   1.1742	  -0.1573
14640000000.0000	   2.9916	   5.5954	   1.1731	  -0.1482
14720000000.0000	   3.0169	   5.5415	   1.1692	  -0.1384
14800000000.0000	   3.0065	   5.5104	   1.1676	  -0.1391
14880000000.0000	   3.0372	   5.4642	   1.1637	  -0.1337
14960000000.0000	   2.9873	   5.4174	   1.1732	  -0.1380
15040000000.0000	   3.0116	   5.4124	   1.1683	  -0.1371
15120000000.0000	   2.9818	   5.3307	   1.1792	  -0.1326
15200000000.0000	   2.9569	   5.3460	   1.1782	  -0.1414
15280000000.0000	   2.9728	   5.2748	   1.1821	  -0.1315
15360000000.0000	   2.9031	   5.2626	   1.1890	  -0.1417
15440000000.0000	   2.9296	   5.2380	   1.1860	  -0.1360
15520000000.0000	   2.8643	   5.1833	   1.1978	  -0.1405
15600000000.0000	   2.8645	   5.2222	   1.1909	  -0.1471
15680000000.0000	   2.8622	   5.1333	   1.1978	  -0.1383
15760000000.0000	   2.7947	   5.1643	   1.2002	  -0.1545
15840000000.0000	   2.8334	   5.1370	   1.1940	  -0.1461
15920000000.0000	   2.7609	   5.1139	   1.2039	  -0.1553
16000000000.0000	   2.7933	   5.1492	   1.1923	  -0.1570
16080000000.0000	   2.7675	   5.0777	   1.2015	  -0.1542
16160000000.0000	   2.7410	   5.1205	   1.1950	  -0.1651
16240000000.0000	   2.7686	   5.0936	   1.1937	  -0.1571
16320000000.0000	   2.7278	   5.0982	   1.1944	  -0.1667
16400000000.0000	   2.7710	   5.0882	   1.1873	  -0.1619
16480000000.0000	   2.7515	   5.0681	   1.1884	  -0.1628
16560000000.0000	   2.7579	   5.0886	   1.1830	  -0.1656
16640000000.0000	   2.7768	   5.0572	   1.1826	  -0.1604
16720000000.0000	   2.7794	   5.0531	   1.1792	  -0.1621
16800000000.0000	   2.7947	   5.0272	   1.1772	  -0.1570
16880000000.0000	   2.7980	   5.0089	   1.1762	  -0.1556
16960000000.0000	   2.8115	   4.9857	   1.1749	  -0.1532
17040000000.0000	   2.8033	   4.9698	   1.1751	  -0.1533
17120000000.0000	   2.8323	   4.9324	   1.1737	  -0.1455
17200000000.0000	   2.8070	   4.9040	   1.1774	  -0.1473
17280000000.0000	   2.8393	   4.9012	   1.1704	  -0.1432
17360000000.0000	   2.8144	   4.8304	   1.1819	  -0.1400
17440000000.0000	   2.8075	   4.8382	   1.1787	  -0.1426
17520000000.0000	   2.8223	   4.7635	   1.1845	  -0.1322
17600000000.0000	   2.7812	   4.7575	   1.1870	  -0.1396
17680000000.0000	   2.8198	   4.7304	   1.1834	  -0.1313
17760000000.0000	   2.7682	   4.6700	   1.1976	  -0.1324
17840000000.0000	   2.7886	   4.6897	   1.1881	  -0.1338
17920000000.0000	   2.7807	   4.6037	   1.1992	  -0.1254
18000000000.0000	   2.7380	   4.6203	   1.2005	  -0.1350
