frequency	e'	e''	u'	u''
2000000000.0000	  11.8863	   8.3713	   1.2293	   0.0414
2080000000.0000	  11.6915	   8.2793	   1.2229	   0.0428
2160000000.0000	  11.5366	   8.2135	   1.2311	   0.0343
2240000000.0000	  11.3973	   8.1118	   1.2311	   0.0346
2320000000.0000	  11.2172	   8.0460	   1.2322	   0.0255
2400000000.0000	  11.1189	   7.9800	   1.2288	   0.0204
2480000000.0000	  10.9624	   7.9034	   1.2236	   0.0224
2560000000.0000	  10.8590	   7.8514	   1.2226	   0.0122
2640000000.0000	  10.7322	   7.7755	   1.2098	   0.0181
2720000000.0000	  10.6178	   7.7382	   1.2165	   0.0121
2800000000.0000	  10.5465	   7.6744	   1.2031	   0.0096
2880000000.0000	  10.4220	   7.6236	   1.2017	   0.0117
2960000000.0000	  10.3615	   7.5917	   1.1954	   0.0035
3040000000.0000	  10.2570	   7.5143	   1.1898	   0.0084
3120000000.0000	  10.1629	   7.5005	   1.1905	   0.0009
3200000000.0000	  10.0762	   7.4400	   1.1769	   0.0016
3280000000.0000	   9.9755	   7.4272	   1.1810	   0.0062
3360000000.0000	   9.9085	   7.3872	   1.1727	  -0.0012
3440000000.0000	   9.7792	   7.3346	   1.1681	   0.0047
3520000000.0000	   9.7067	   7.3383	   1.1664	   0.0035
3600000000.0000	   9.6118	   7.2724	   1.1623	   0.0050
3680000000.0000	   9.5015	   7.2511	   1.1637	   0.0035
3760000000.0000	   9.3994	   7.2111	   1.1563	   0.0026
3840000000.0000	   9.2849	   7.1822	   1.1568	   0.0051
3920000000.0000	   9.1958	   7.1561	   1.1540	   0.0033
4000000000.0000	   9.0770	   7.1055	   1.1567	   0.0046
4080000000.0000	   8.9635	   7.0863	   1.1570	   0.0042
4160000000.0000	   8.8496	   7.0509	   1.1598	   0.0045
4240000000.0000	   8.7568	   7.0289	   1.1646	   0.0047
4320000000.0000	   8.6407	   6.9767	   1.1673	   0.0055
4400000000.0000	   8.5298	   6.9531	   1.1745	   0.0051
4480000000.0000	   8.4207	   6.9090	   1.1752	   0.0063
4560000000.0000	   8.2934	   6.8783	   1.1838	   0.0089
4640000000.0000	   8.2013	   6.8513	   1.1876	   0.0091
4720000000.0000	   8.0807	   6.8097	   1.1956	   0.0139
4800000000.0000	   7.9806	   6.8184	   1.2019	   0.0112
4880000000.0000	   7.8935	   6.7592	   1.2064	   0.0153
4960000000.0000	   7.7822	   6.7639	   1.2128	   0.0117
5040000000.0000	   7.7260	   6.7310	   1.2124	   0.0143
5120000000.0000	   7.6170	   6.7119	   1.2204	   0.0171
5200000000.0000	   7.5508	   6.7062	   1.2205	   0.0130
5280000000.0000	   7.4739	   6.6721	   1.2224	   0.0169
5360000000.0000	   7.4079	   6.6794	   1.2229	   0.0116
5440000000.0000	   7.3445	   6.6571	   1.2193	   0.0111
5520000000.0000	   7.2863	   6.6609	   1.2186	   0.0103
5600000000.0000	   7.2369	   6.6463	   1.2123	   0.0089
5680000000.0000	   7.1769	   6.6321	   1.2127	   0.0075
5760000000.0000	   7.1293	   6.6373	   1.2043	   0.0028
5840000000.0000	   7.0668	   6.6225	   1.2009	   0.0017
5920000000.0000	   7.0299	   6.6288	   1.1970	  -0.0035
6000000000.0000	   6.9859	   6.5994	   1.1901	  -0.0074
6080000000.0000	   6.9120	   6.6171	   1.1859	  -0.0136
6160000000.0000	   6.9024	   6.5939	   1.1785	  -0.0147
6240000000.0000	   6.8237	   6.5779	   1.1791	  -0.0209
6320000000.0000	   6.7904	   6.5660	   1.1717	  -0.0276
6400000000.0000	   6.7265	   6.5479	   1.1688	  -0.0297
6480000000.0000	   6.6860	   6.5325	   1.1675	  -0.0370
6560000000.0000	   6.6491	   6.4789	   1.1638	  -0.0385
6640000000.0000	   6.5662	   6.4708	   1.1641	  -0.0445
6720000000.0000	   6.5363	   6.4436	   1.1603	  -0.0465
6800000000.0000	   6.4772	   6.4173	   1.1616	  -0.0496
6880000000.0000	   6.4298	   6.3695	   1.1611	  -0.0522
6960000000.0000	   6.3809	   6.3342	   1.1622	  -0.0536
7040000000.0000	   6.3411	   6.3090	   1.1618	  -0.0573
7120000000.0000	   6.2965	   6.2467	   1.1618	  -0.0560
7200000000.0000	   6.2457	   6.2299	   1.1644	  -0.0580
7280000000.0000	   6.2115	   6.1689	   1.1648	  -0.0561
7360000000.0000	   6.1529	   6.1397	   1.1692	  -0.0583
7440000000.0000	   6.1317	   6.0992	   1.1671	  -0.0569
7520000000.0000	   6.0609	   6.0536	   1.1728	  -0.0548
7600000000.0000	   6.0335	   6.0285	   1.1723	  -0.0566
7680000000.0000	   5.9888	   5.9552	   1.1754	  -0.0511
7760000000.0000	   5.9214	   5.9365	   1.1796	  -0.0517
7840000000.0000	   5.8962	   5.8759	   1.1811	  -0.0483
7920000000.0000	   5.8181	   5.8480	   1.1873	  -0.0476
8000000000.0000	   5.7873	   5.8170	   1.1873	  -0.0466
8080000000.0000	   5.7212	   5.7646	   1.1929	  -0.0425
8160000000.0000	   5.6726	   5.7480	   1.1954	  -0.0435
8240000000.0000	   5.6272	   5.6990	   1.1981	  -0.0383
8320000000.0000	   5.5606	   5.6670	   1.2054	  -0.0387
8400000000.0000	   5.5170	   5.6311	   1.2066	  -0.0383
8480000000.0000	   5.4467	   5.6057	   1.2120	  -0.0379
8560000000.0000	   5.4019	   5.5790	   1.2128	  -0.0357
8640000000.0000	   5.3486	   5.5361	   1.2178	  -0.0348
8720000000.0000	   5.2759	   5.5157	   1.2227	  -0.0358
8800000000.0000	   5.2212	   5.4976	   1.2260	  -0.0366
8880000000.0000	   5.1665	   5.4835	   1.2283	  -0.0375
8960000000.0000	   5.1228	   5.4440	   1.2314	  -0.0366
9040000000.0000	   5.0564	   5.4407	   1.2354	  -0.0414
9120000000.0000	   5.0237	   5.4142	   1.2352	  -0.0413
9200000000.0000	   4.9616	   5.3913	   1.2390	  -0.0448
9280000000.0000	   4.9357	   5.3801	   1.2370	  -0.0454
9360000000.0000	   4.8732	   5.3503	   1.2428	  -0.0461
9440000000.0000	   4.8428	   5.3602	   1.2407	  -0.0541
9520000000.0000	   4.8178	   5.3041	   1.2400	  -0.0510
9600000000.0000	   4.7723	   5.3033	   1.2401	  -0.0556
9680000000.0000	   4.7806	   5.2747	   1.2350	  -0.0538
9760000000.0000	   4.7407	   5.2408	   1.2388	  -0.0541
9840000000.0000	   4.7175	   5.2173	   1.2356	  -0.0572
9920000000.0000	   4.6912	   5.1767	   1.2376	  -0.0550
10000000000.0000	   4.6825	   5.1784	   1.2346	  -0.0590
10080000000.0000	   4.7007	   5.1260	   1.2313	  -0.0544
10160000000.0000	   4.6555	   5.1080	   1.2345	  -0.0571
10240000000.0000	   4.6696	   5.0752	   1.2282	  -0.0553
10320000000.0000	   4.6378	   5.0330	   1.2326	  -0.0537
10400000000.0000	   4.6316	   5.0178	   1.2299	  -0.0549
10480000000.0000	   4.6228	   4.9713	   1.2307	  -0.0524
10560000000.0000	   4.5770	   4.9536	   1.2367	  -0.0540
10640000000.0000	   4.5556	   4.9144	   1.2372	  -0.0525
10720000000.0000	   4.5392	   4.8981	   1.2392	  -0.0527
10800000000.0000	   4.5030	   4.8523	   1.2433	  -0.0508
10880000000.0000	   4.4688	   4.8469	   1.2462	  -0.0551
10960000000.0000	   4.4463	   4.8050	   1.2495	  -0.0509
11040000000.0000	   4.3933	   4.7817	   1.2551	  -0.0538
11120000000.0000	   4.3805	   4.7644	   1.2560	  -0.0554
11200000000.0000	   4.3073	   4.7118	   1.2676	  -0.0525
11280000000.0000	   4.2791	   4.7278	   1.2668	  -0.0595
11360000000.0000	   4.2483	   4.6719	   1.2751	  -0.0542
11440000000.0000	   4.1658	   4.6836	   1.2840	  -0.0631
11520000000.0000	   4.1695	   4.6451	   1.2825	  -0.0584
11600000000.0000	   4.0902	   4.6120	   1.2967	  -0.0591
11680000000.0000	   4.0632	   4.6217	   1.2964	  -0.0608
11760000000.0000	   4.0250	   4.5040	   1.3058	  -0.0417
11840000000.0000	   3.9531	   4.5143	   1.3057	  -0.0489
11920000000.0000	   4.0368	   4.4585	   1.2813	  -0.0357
12000000000.0000	   4.0200	   4.4361	   1.2771	  -0.0495
12080000000.0000	   4.0109	   4.5239	   1.2764	  -0.0778
12160000000.0000	   3.9650	   4.4848	   1.2895	  -0.0758
12240000000.0000	   3.9098	   4.4938	   1.2976	  -0.0831
12320000000.0000	   3.9019	   4.4561	   1.3001	  -0.0774
12400000000.0000	   3.8528	   4.4282	   1.3089	  -0.0770
12480000000.0000	   3.8449	   4.4118	   1.3067	  -0.0777
12560000000.0000	   3.8354	   4.3740	   1.3090	  -0.0721
12640000000.0000	   3.8098	   4.3545	   1.3110	  -0.0739
12720000000.0000	   3.8182	   4.3386	   1.3079	  -0.0729
12800000000.0000	   3.8032	   4.3045	   1.3110	  -0.0687
12880000000.0000	   3.7870	   4.2948	   1.3111	  -0.0726
12960000000.0000	   3.8013	   4.2716	   1.3081	  -0.0685
13040000000.0000	   3.7878	   4.2363	   1.3112	  -0.0675
13120000000.0000	   3.7846	   4.2524	   1.3065	  -0.0732
13200000000.0000	   3.8089	   4.2051	   1.3044	  -0.0632
13280000000.0000	   3.7682	   4.2050	   1.3076	  -0.0712
13360000000.0000	   3.8153	   4.2164	   1.2951	  -0.0684
13440000000.0000	   3.7836	   4.1628	   1.3034	  -0.0637
13520000000.0000	   3.8021	   4.2169	   1.2926	  -0.0732
13600000000.0000	   3.8460	   4.1623	   1.2889	  -0.0599
13680000000.0000	   3.8040	   4.1794	   1.2925	  -0.0703
13760000000.0000	   3.8711	   4.1804	   1.2791	  -0.0651
13840000000.0000	   3.8503	   4.1412	   1.2852	  -0.0617
13920000000.0000	   3.8826	   4.1829	   1.2738	  -0.0665
14000000000.0000	   3.9051	   4.1320	   1.2728	  -0.0541
14080000000.0000	   3.8850	   4.1681	   1.2690	  -0.0624
14160000000.0000	   3.9366	   4.1491	   1.2582	  -0.0534
14240000000.0000	   3.9051	   4.1263	   1.2629	  -0.0539
14320000000.0000	   3.9410	   4.1379	   1.2521	  -0.0543
14400000000.0000	   3.9333	   4.0992	   1.2581	  -0.0518
14480000000.0000	   3.9225	   4.0906	   1.2613	  -0.0511
14560000000.0000	   3.9076	   4.0479	   1.2676	  -0.0437
14640000000.0000	   3.9053	   4.0132	   1.2668	  -0.0344
14720000000.0000	   3.9108	   3.9554	   1.2652	  -0.0220
14800000000.0000	   3.8981	   3.9399	   1.2647	  -0.0232
14880000000.0000	   3.9163	   3.8995	   1.2613	  -0.0163
14960000000.0000	   3.8564	   3.8774	   1.2739	  -0.0205
15040000000.0000	   3.8856	   3.8746	   1.2683	  -0.0191
15120000000.0000	   3.8354	   3.8200	   1.2819	  -0.0141
15200000000.0000	   3.8164	   3.8490	   1.2809	  -0.0237
15280000000.0000	   3.8076	   3.7905	   1.2870	  -0.0125
15360000000.0000	   3.7432	   3.7982	   1.2960	  -0.0228
15440000000.0000	   3.7612	   3.7837	   1.2929	  -0.0176
15520000000.0000	   3.6811	   3.7526	   1.3096	  -0.0221
15600000000.0000	   3.6923	   3.7918	   1.3022	  -0.0290
15680000000.0000	   3.6612	   3.7236	   1.3131	  -0.0202
15760000000.0000	   3.6077	   3.7712	   1.3160	  -0.0372
15840000000.0000	   3.6270	   3.7402	   1.3132	  -0.0278
15920000000.0000	   3.5566	   3.7408	   1.3257	  -0.0381
16000000000.0000	   3.5816	   3.7616	   1.3161	  -0.0391
16080000000.0000	   3.5330	   3.7124	   1.3297	  -0.0357
16160000000.0000	   3.5111	   3.7576	   1.3263	  -0.0476
16240000000.0000	   3.5195	   3.7241	   1.3284	  -0.0382
16320000000.0000	   3.4774	   3.7339	   1.3338	  -0.0477
16400000000.0000	   3.4971	   3.7136	   1.3306	  -0.0408
16480000000.0000	   3.4630	   3.6916	   1.3383	  -0.0396
16560000000.0000	   3.4620	   3.6952	   1.3383	  -0.0399
16640000000.0000	   3.4545	   3.6558	   1.3446	  -0.0324
16720000000.0000	   3.4449	   3.6382	   1.3465	  -0.0298
16800000000.0000	   3.4309	   3.5959	   1.3532	  -0.0206
16880000000.0000	   3.4196	   3.5616	   1.3599	  -0.0133
16960000000.0000	   3.4105	   3.5177	   1.3668	  -0.0052
17040000000.0000	   3.3848	   3.4806	   1.3754	   0.0023
17120000000.0000	   3.3803	   3.4166	   1.3844	   0.0188
17200000000.0000	   3.3444	   3.3626	   1.3983	   0.0279
17280000000.0000	   3.3568	   3.3170	   1.3996	   0.0447
17360000000.0000	   3.3133	   3.2279	   1.4226	   0.0619
17440000000.0000	   3.3032	   3.1965	   1.4268	   0.0735
17520000000.0000	   3.2985	   3.0925	   1.4397	   0.1038
17600000000.0000	   3.2586	   3.0459	   1.4529	   0.1144
17680000000.0000	   3.2874	   2.9626	   1.4525	   0.1461
17760000000.0000	   3.2415	   2.8777	   1.4737	   0.1685
17840000000.0000	   3.2737	   2.8283	   1.4631	   0.1921
17920000000.0000	   3.2692	   2.7107	   1.4732	   0.2310
18000000000.0000	   3.2696	   2.6811	   1.4709	   0.2459
