frequency	e'	e''	u'	u''
2000000000.0000	  13.1672	  13.9128	   1.2132	   0.1085
2080000000.0000	  12.8265	  13.7186	   1.2110	   0.1095
2160000000.0000	  12.5477	  13.5637	   1.2231	   0.0996
2240000000.0000	  12.2942	  13.3647	   1.2306	   0.1005
2320000000.0000	  12.0010	  13.2080	   1.2371	   0.0918
2400000000.0000	  11.8100	  13.0530	   1.2373	   0.0905
2480000000.0000	  11.5646	  12.8809	   1.2368	   0.0995
2560000000.0000	  11.3852	  12.7654	   1.2391	   0.0970
2640000000.0000	  11.1925	  12.6050	   1.2236	   0.1147
2720000000.0000	  11.0023	  12.5140	   1.2275	   0.1190
2800000000.0000	  10.8792	  12.3974	   1.2068	   0.1297
2880000000.0000	  10.6873	  12.3109	   1.1944	   0.1422
2960000000.0000	  10.5731	  12.2671	   1.1709	   0.1415
3040000000.0000	  10.4004	  12.1694	   1.1476	   0.1534
3120000000.0000	  10.2210	  12.1706	   1.1247	   0.1427
3200000000.0000	  10.0492	  12.1035	   1.0854	   0.1364
3280000000.0000	   9.8057	  12.0875	   1.0716	   0.1278
3360000000.0000	   9.6185	  12.0455	   1.0451	   0.0972
3440000000.0000	   9.3284	  11.9354	   1.0297	   0.0841
3520000000.0000	   9.0858	  11.8775	   1.0276	   0.0564
3600000000.0000	   8.8488	  11.7096	   1.0259	   0.0383
3680000000.0000	   8.5877	  11.5640	   1.0389	   0.0189
3760000000.0000	   8.3898	  11.3832	   1.0413	   0.0043
3840000000.0000	   8.1746	  11.1957	   1.0568	   0.0025
3920000000.0000	   8.0115	  11.0328	   1.0681	  -0.0047
4000000000.0000	   7.8552	  10.8374	   1.0840	  -0.0036
4080000000.0000	   7.6995	  10.6836	   1.0964	   0.0003
4160000000.0000	   7.5715	  10.5214	   1.1075	   0.0032
4240000000.0000	   7.4536	  10.3924	   1.1218	   0.0113
4320000000.0000	   7.3342	  10.2406	   1.1303	   0.0167
4400000000.0000	   7.2218	  10.1282	   1.1409	   0.0224
4480000000.0000	   7.1071	  10.0078	   1.1448	   0.0297
4560000000.0000	   6.9824	   9.9097	   1.1542	   0.0370
4640000000.0000	   6.8823	   9.8222	   1.1587	   0.0423
4720000000.0000	   6.7526	   9.7243	   1.1668	   0.0508
4800000000.0000	   6.6426	   9.6801	   1.1711	   0.0500
4880000000.0000	   6.5420	   9.5812	   1.1753	   0.0572
4960000000.0000	   6.4068	   9.5454	   1.1795	   0.0537
5040000000.0000	   6.3314	   9.4740	   1.1775	   0.0567
5120000000.0000	   6.1945	   9.4162	   1.1842	   0.0594
5200000000.0000	   6.1033	   9.3790	   1.1819	   0.0525
5280000000.0000	   5.9949	   9.3009	   1.1837	   0.0565
5360000000.0000	   5.8889	   9.2810	   1.1836	   0.0460
5440000000.0000	   5.7973	   9.2151	   1.1785	   0.0443
5520000000.0000	   5.6920	   9.1849	   1.1799	   0.0401
5600000000.0000	   5.6223	   9.1339	   1.1708	   0.0336
5680000000.0000	   5.5239	   9.0633	   1.1741	   0.0311
5760000000.0000	   5.4447	   9.0402	   1.1656	   0.0209
5840000000.0000	   5.3652	   8.9730	   1.1624	   0.0174
5920000000.0000	   5.2901	   8.9304	   1.1627	   0.0098
6000000000.0000	   5.2323	   8.8618	   1.1562	   0.0009
6080000000.0000	   5.1336	   8.8225	   1.1549	  -0.0063
6160000000.0000	   5.1082	   8.7721	   1.1495	  -0.0109
6240000000.0000	   5.0224	   8.6982	   1.1534	  -0.0186
6320000000.0000	   4.9715	   8.6498	   1.1490	  -0.0276
6400000000.0000	   4.9057	   8.5845	   1.1475	  -0.0305
6480000000.0000	   4.8554	   8.5352	   1.1495	  -0.0391
6560000000.0000	   4.8213	   8.4560	   1.1475	  -0.0425
6640000000.0000	   4.7386	   8.4004	   1.1503	  -0.0486
6720000000.0000	   4.7023	   8.3444	   1.1491	  -0.0508
6800000000.0000	   4.6396	   8.2905	   1.1532	  -0.0550
6880000000.0000	   4.5949	   8.2215	   1.1544	  -0.0580
6960000000.0000	   4.5378	   8.1595	   1.1584	  -0.0598
7040000000.0000	   4.4931	   8.1185	   1.1597	  -0.0648
7120000000.0000	   4.4466	   8.0294	   1.1619	  -0.0631
7200000000.0000	   4.3823	   7.9926	   1.1679	  -0.0666
7280000000.0000	   4.3515	   7.9165	   1.1688	  -0.0647
7360000000.0000	   4.2703	   7.8581	   1.1773	  -0.0667
7440000000.0000	   4.2461	   7.8120	   1.1760	  -0.0669
7520000000.0000	   4.1732	   7.7305	   1.1847	  -0.0636
7600000000.0000	   4.1275	   7.6966	   1.1863	  -0.0678
7680000000.0000	   4.0898	   7.6045	   1.1905	  -0.0617
7760000000.0000	   4.0030	   7.5540	   1.1990	  -0.0621
7840000000.0000	   3.9796	   7.4854	   1.2011	  -0.0604
7920000000.0000	   3.8916	   7.4125	   1.2109	  -0.0575
8000000000.0000	   3.8474	   7.3706	   1.2134	  -0.0580
8080000000.0000	   3.7859	   7.2798	   1.2215	  -0.0515
8160000000.0000	   3.7146	   7.2338	   1.2277	  -0.0527
8240000000.0000	   3.6716	   7.1609	   1.2324	  -0.0463
8320000000.0000	   3.5949	   7.0858	   1.2449	  -0.0444
8400000000.0000	   3.5368	   7.0230	   1.2501	  -0.0449
8480000000.0000	   3.4569	   6.9535	   1.2601	  -0.0423
8560000000.0000	   3.3915	   6.8956	   1.2664	  -0.0383
8640000000.0000	   3.3310	   6.8247	   1.2759	  -0.0371
8720000000.0000	   3.2493	   6.7587	   1.2865	  -0.0358
8800000000.0000	   3.1721	   6.7009	   1.2965	  -0.0354
8880000000.0000	   3.1042	   6.6483	   1.3039	  -0.0344
8960000000.0000	   3.0450	   6.5719	   1.3144	  -0.0313
9040000000.0000	   2.9618	   6.5232	   1.3259	  -0.0349
9120000000.0000	   2.9089	   6.4589	   1.3334	  -0.0326
9200000000.0000	   2.8268	   6.3944	   1.3463	  -0.0348
9280000000.0000	   2.7794	   6.3493	   1.3520	  -0.0329
9360000000.0000	   2.7022	   6.2633	   1.3685	  -0.0286
9440000000.0000	   2.6346	   6.2308	   1.3772	  -0.0358
9520000000.0000	   2.6041	   6.1405	   1.3851	  -0.0278
9600000000.0000	   2.5277	   6.0867	   1.3971	  -0.0288
9680000000.0000	   2.5092	   6.0277	   1.4017	  -0.0226
9760000000.0000	   2.4491	   5.9374	   1.4194	  -0.0148
9840000000.0000	   2.4068	   5.8707	   1.4276	  -0.0129
9920000000.0000	   2.3711	   5.7697	   1.4431	   0.0017
10000000000.0000	   2.3226	   5.7104	   1.4569	   0.0071
10080000000.0000	   2.3255	   5.6176	   1.4660	   0.0253
10160000000.0000	   2.2700	   5.5089	   1.4875	   0.0424
10240000000.0000	   2.2592	   5.4174	   1.4954	   0.0621
10320000000.0000	   2.2395	   5.2904	   1.5137	   0.0930
10400000000.0000	   2.2278	   5.1845	   1.5249	   0.1230
10480000000.0000	   2.2396	   5.0497	   1.5340	   0.1633
10560000000.0000	   2.2388	   4.9138	   1.5455	   0.2100
10640000000.0000	   2.2659	   4.7786	   1.5402	   0.2598
10720000000.0000	   2.3127	   4.6578	   1.5281	   0.3149
10800000000.0000	   2.3653	   4.5188	   1.5043	   0.3715
10880000000.0000	   2.4299	   4.4182	   1.4659	   0.4184
10960000000.0000	   2.5310	   4.3133	   1.4126	   0.4639
11040000000.0000	   2.6086	   4.2385	   1.3543	   0.4890
11120000000.0000	   2.7277	   4.1907	   1.2858	   0.4946
11200000000.0000	   2.8059	   4.1442	   1.2288	   0.4949
11280000000.0000	   2.8968	   4.1690	   1.1727	   0.4646
11360000000.0000	   2.9928	   4.1642	   1.1290	   0.4405
11440000000.0000	   3.0203	   4.2078	   1.1040	   0.4011
11520000000.0000	   3.1002	   4.2512	   1.0731	   0.3633
11600000000.0000	   3.0985	   4.2844	   1.0688	   0.3328
11680000000.0000	   3.1149	   4.3674	   1.0590	   0.2943
11760000000.0000	   3.1221	   4.3569	   1.0514	   0.2817
11840000000.0000	   3.0676	   4.4281	   1.0514	   0.2459
11920000000.0000	   3.1236	   4.4554	   1.0257	   0.2200
12000000000.0000	   3.0998	   4.4689	   1.0282	   0.1812
12080000000.0000	   3.0806	   4.5716	   1.0453	   0.1344
12160000000.0000	   3.0459	   4.5823	   1.0611	   0.1227
12240000000.0000	   2.9770	   4.6258	   1.0784	   0.1029
12320000000.0000	   2.9545	   4.6380	   1.0853	   0.0918
12400000000.0000	   2.8984	   4.6386	   1.0986	   0.0832
12480000000.0000	   2.8622	   4.6584	   1.1051	   0.0679
12560000000.0000	   2.8340	   4.6484	   1.1125	   0.0634
12640000000.0000	   2.7835	   4.6455	   1.1220	   0.0524
12720000000.0000	   2.7616	   4.6528	   1.1265	   0.0431
12800000000.0000	   2.7269	   4.6388	   1.1356	   0.0402
12880000000.0000	   2.6857	   4.6333	   1.1450	   0.0301
12960000000.0000	   2.6735	   4.6346	   1.1483	   0.0247
13040000000.0000	   2.6361	   4.6029	   1.1601	   0.0209
13120000000.0000	   2.5962	   4.6271	   1.1647	   0.0089
13200000000.0000	   2.5971	   4.5961	   1.1682	   0.0139
13280000000.0000	   2.5303	   4.5897	   1.1798	   0.0040
13360000000.0000	   2.5246	   4.6131	   1.1758	   0.0010
13440000000.0000	   2.4742	   4.5608	   1.1873	   0.0048
13520000000.0000	   2.4330	   4.5995	   1.1865	  -0.0088
13600000000.0000	   2.4431	   4.5502	   1.1872	  -0.0023
13680000000.0000	   2.3728	   4.5336	   1.1997	  -0.0137
13760000000.0000	   2.3942	   4.5364	   1.1939	  -0.0169
13840000000.0000	   2.3623	   4.4810	   1.2062	  -0.0150
13920000000.0000	   2.3490	   4.4964	   1.2057	  -0.0239
14000000000.0000	   2.3574	   4.4496	   1.2095	  -0.0150
14080000000.0000	   2.2996	   4.4530	   1.2169	  -0.0246
14160000000.0000	   2.3121	   4.4330	   1.2140	  -0.0213
14240000000.0000	   2.2671	   4.3819	   1.2270	  -0.0199
14320000000.0000	   2.2580	   4.3741	   1.2275	  -0.0243
14400000000.0000	   2.2407	   4.3174	   1.2426	  -0.0204
14480000000.0000	   2.2079	   4.2792	   1.2570	  -0.0190
14560000000.0000	   2.1882	   4.2285	   1.2694	  -0.0107
14640000000.0000	   2.1660	   4.1765	   1.2779	   0.0008
14720000000.0000	   2.1501	   4.1202	   1.2847	   0.0123
14800000000.0000	   2.1175	   4.0670	   1.2959	   0.0153
14880000000.0000	   2.1050	   4.0017	   1.3061	   0.0250
14960000000.0000	   2.0592	   3.9356	   1.3284	   0.0296
15040000000.0000	   2.0579	   3.8916	   1.3386	   0.0397
15120000000.0000	   2.0177	   3.8044	   1.3631	   0.0560
15200000000.0000	   1.9910	   3.7645	   1.3787	   0.0618
15280000000.0000	   1.9844	   3.6711	   1.3965	   0.0894
15360000000.0000	   1.9284	   3.6088	   1.4203	   0.0995
15440000000.0000	   1.9388	   3.5389	   1.4301	   0.1278
15520000000.0000	   1.8982	   3.4454	   1.4554	   0.1522
15600000000.0000	   1.9086	   3.4015	   1.4589	   0.1774
15680000000.0000	   1.9142	   3.2884	   1.4705	   0.2220
15760000000.0000	   1.9046	   3.2454	   1.4732	   0.2427
15840000000.0000	   1.9542	   3.1607	   1.4573	   0.2920
15920000000.0000	   1.9562	   3.0895	   1.4538	   0.3263
16000000000.0000	   2.0244	   3.0499	   1.4192	   0.3601
16080000000.0000	   2.0636	   2.9648	   1.3946	   0.4000
16160000000.0000	   2.1160	   2.9481	   1.3526	   0.4136
16240000000.0000	   2.1966	   2.8999	   1.3049	   0.4420
16320000000.0000	   2.2502	   2.8839	   1.2654	   0.4413
16400000000.0000	   2.3401	   2.8643	   1.2136	   0.4423
16480000000.0000	   2.3963	   2.8495	   1.1743	   0.4372
16560000000.0000	   2.4726	   2.8662	   1.1350	   0.4208
16640000000.0000	   2.5402	   2.8627	   1.1022	   0.4080
16720000000.0000	   2.5968	   2.8750	   1.0750	   0.3865
16800000000.0000	   2.6482	   2.8865	   1.0510	   0.3698
16880000000.0000	   2.6916	   2.9017	   1.0340	   0.3502
16960000000.0000	   2.7382	   2.9157	   1.0189	   0.3323
17040000000.0000	   2.7653	   2.9370	   1.0094	   0.3136
17120000000.0000	   2.8009	   2.9382	   0.9998	   0.3024
17200000000.0000	   2.8036	   2.9554	   0.9986	   0.2853
17280000000.0000	   2.8420	   2.9734	   0.9888	   0.2722
17360000000.0000	   2.8367	   2.9660	   0.9936	   0.2635
17440000000.0000	   2.8475	   3.0007	   0.9912	   0.2480
17520000000.0000	   2.8542	   2.9791	   0.9925	   0.2450
17600000000.0000	   2.8366	   3.0106	   0.9966	   0.2294
17680000000.0000	   2.8643	   3.0062	   0.9922	   0.2264
17760000000.0000	   2.8248	   3.0078	   1.0047	   0.2185
17840000000.0000	   2.8449	   3.0341	   0.9995	   0.2080
17920000000.0000	   2.8332	   3.0023	   1.0061	   0.2089
18000000000.0000	   2.8081	   3.0468	   1.0116	   0.1948
