frequency	e'	e''	u'	u''
2000000000.0000	   5.9348	   4.7564	   1.2026	   0.1401
2080000000.0000	   5.8431	   4.6537	   1.1976	   0.1499
2160000000.0000	   5.7701	   4.5609	   1.2033	   0.1512
2240000000.0000	   5.7083	   4.4580	   1.2032	   0.1621
2320000000.0000	   5.6246	   4.3795	   1.2019	   0.1594
2400000000.0000	   5.5926	   4.3005	   1.1908	   0.1642
2480000000.0000	   5.5302	   4.2181	   1.1777	   0.1744
2560000000.0000	   5.4921	   4.1536	   1.1700	   0.1713
2640000000.0000	   5.4588	   4.0844	   1.1433	   0.1825
2720000000.0000	   5.4107	   4.0312	   1.1383	   0.1805
2800000000.0000	   5.4092	   3.9773	   1.1078	   0.1789
2880000000.0000	   5.3676	   3.9244	   1.0907	   0.1809
2960000000.0000	   5.3595	   3.8914	   1.0696	   0.1669
3040000000.0000	   5.3310	   3.8385	   1.0494	   0.1657
3120000000.0000	   5.2955	   3.8234	   1.0376	   0.1483
3200000000.0000	   5.2797	   3.7896	   1.0101	   0.1341
3280000000.0000	   5.2407	   3.7657	   1.0036	   0.1273
3360000000.0000	   5.2131	   3.7479	   0.9898	   0.1048
3440000000.0000	   5.1614	   3.7151	   0.9810	   0.0930
3520000000.0000	   5.1270	   3.7035	   0.9779	   0.0769
3600000000.0000	   5.0792	   3.6617	   0.9749	   0.0649
3680000000.0000	   5.0206	   3.6370	   0.9825	   0.0513
3760000000.0000	   4.9709	   3.6078	   0.9814	   0.0371
3840000000.0000	   4.9134	   3.5673	   0.9875	   0.0317
3920000000.0000	   4.8657	   3.5322	   0.9921	   0.0251
4000000000.0000	   4.8077	   3.4865	   1.0055	   0.0231
4080000000.0000	   4.7604	   3.4513	   1.0128	   0.0191
4160000000.0000	   4.7124	   3.4022	   1.0219	   0.0189
4240000000.0000	   4.6710	   3.3601	   1.0326	   0.0230
4320000000.0000	   4.6272	   3.3100	   1.0410	   0.0262
4400000000.0000	   4.5866	   3.2700	   1.0524	   0.0307
4480000000.0000	   4.5496	   3.2297	   1.0573	   0.0351
4560000000.0000	   4.5073	   3.1949	   1.0658	   0.0427
4640000000.0000	   4.4823	   3.1614	   1.0715	   0.0464
4720000000.0000	   4.4437	   3.1282	   1.0796	   0.0548
4800000000.0000	   4.4203	   3.1149	   1.0831	   0.0550
4880000000.0000	   4.3930	   3.0768	   1.0865	   0.0621
4960000000.0000	   4.3616	   3.0722	   1.0902	   0.0608
5040000000.0000	   4.3513	   3.0474	   1.0870	   0.0649
5120000000.0000	   4.3153	   3.0339	   1.0936	   0.0684
5200000000.0000	   4.2988	   3.0284	   1.0908	   0.0635
5280000000.0000	   4.2774	   3.0100	   1.0913	   0.0669
5360000000.0000	   4.2573	   3.0117	   1.0898	   0.0596
5440000000.0000	   4.2386	   2.9989	   1.0837	   0.0578
5520000000.0000	   4.2168	   3.0023	   1.0843	   0.0560
5600000000.0000	   4.2067	   2.9995	   1.0755	   0.0500
5680000000.0000	   4.1859	   2.9843	   1.0776	   0.0474
5760000000.0000	   4.1677	   2.9936	   1.0692	   0.0385
5840000000.0000	   4.1493	   2.9830	   1.0653	   0.0352
5920000000.0000	   4.1411	   2.9866	   1.0645	   0.0264
6000000000.0000	   4.1257	   2.9678	   1.0579	   0.0195
6080000000.0000	   4.1031	   2.9759	   1.0556	   0.0114
6160000000.0000	   4.1036	   2.9646	   1.0507	   0.0081
6240000000.0000	   4.0805	   2.9542	   1.0522	   0.0003
6320000000.0000	   4.0707	   2.9488	   1.0472	  -0.0088
6400000000.0000	   4.0560	   2.9356	   1.0439	  -0.0110
6480000000.0000	   4.0430	   2.9262	   1.0454	  -0.0192
6560000000.0000	   4.0328	   2.9039	   1.0434	  -0.0225
6640000000.0000	   4.0087	   2.9023	   1.0437	  -0.0286
6720000000.0000	   4.0074	   2.8880	   1.0407	  -0.0314
6800000000.0000	   3.9909	   2.8752	   1.0418	  -0.0333
6880000000.0000	   3.9761	   2.8602	   1.0422	  -0.0379
6960000000.0000	   3.9633	   2.8428	   1.0434	  -0.0391
7040000000.0000	   3.9549	   2.8351	   1.0432	  -0.0434
7120000000.0000	   3.9388	   2.8083	   1.0430	  -0.0429
7200000000.0000	   3.9310	   2.8040	   1.0457	  -0.0449
7280000000.0000	   3.9230	   2.7767	   1.0442	  -0.0443
7360000000.0000	   3.8996	   2.7652	   1.0491	  -0.0461
7440000000.0000	   3.8998	   2.7524	   1.0458	  -0.0460
7520000000.0000	   3.8775	   2.7326	   1.0501	  -0.0432
7600000000.0000	   3.8711	   2.7256	   1.0503	  -0.0466
7680000000.0000	   3.8555	   2.6958	   1.0517	  -0.0419
7760000000.0000	   3.8350	   2.6972	   1.0559	  -0.0423
7840000000.0000	   3.8331	   2.6704	   1.0555	  -0.0407
7920000000.0000	   3.8020	   2.6606	   1.0606	  -0.0384
8000000000.0000	   3.7948	   2.6557	   1.0606	  -0.0392
8080000000.0000	   3.7771	   2.6342	   1.0632	  -0.0346
8160000000.0000	   3.7568	   2.6308	   1.0659	  -0.0347
8240000000.0000	   3.7463	   2.6149	   1.0665	  -0.0304
8320000000.0000	   3.7231	   2.6071	   1.0734	  -0.0293
8400000000.0000	   3.7075	   2.5959	   1.0738	  -0.0306
8480000000.0000	   3.6847	   2.5884	   1.0761	  -0.0281
8560000000.0000	   3.6636	   2.5853	   1.0769	  -0.0249
8640000000.0000	   3.6431	   2.5728	   1.0810	  -0.0247
8720000000.0000	   3.6180	   2.5761	   1.0841	  -0.0254
8800000000.0000	   3.5960	   2.5740	   1.0859	  -0.0243
8880000000.0000	   3.5780	   2.5772	   1.0868	  -0.0256
8960000000.0000	   3.5564	   2.5644	   1.0895	  -0.0243
9040000000.0000	   3.5323	   2.5783	   1.0924	  -0.0291
9120000000.0000	   3.5195	   2.5717	   1.0910	  -0.0294
9200000000.0000	   3.4885	   2.5722	   1.0949	  -0.0332
9280000000.0000	   3.4805	   2.5796	   1.0926	  -0.0346
9360000000.0000	   3.4536	   2.5737	   1.0968	  -0.0350
9440000000.0000	   3.4381	   2.5869	   1.0962	  -0.0429
9520000000.0000	   3.4198	   2.5722	   1.0950	  -0.0432
9600000000.0000	   3.3988	   2.5809	   1.0954	  -0.0474
9680000000.0000	   3.3995	   2.5743	   1.0916	  -0.0485
9760000000.0000	   3.3752	   2.5604	   1.0949	  -0.0479
9840000000.0000	   3.3578	   2.5609	   1.0932	  -0.0539
9920000000.0000	   3.3430	   2.5447	   1.0939	  -0.0521
10000000000.0000	   3.3355	   2.5522	   1.0940	  -0.0568
10080000000.0000	   3.3419	   2.5258	   1.0906	  -0.0545
10160000000.0000	   3.3180	   2.5221	   1.0933	  -0.0565
10240000000.0000	   3.3171	   2.5068	   1.0886	  -0.0582
10320000000.0000	   3.3036	   2.4904	   1.0909	  -0.0558
10400000000.0000	   3.2980	   2.4846	   1.0895	  -0.0576
10480000000.0000	   3.2929	   2.4589	   1.0887	  -0.0562
10560000000.0000	   3.2798	   2.4551	   1.0930	  -0.0566
10640000000.0000	   3.2664	   2.4408	   1.0921	  -0.0568
10720000000.0000	   3.2662	   2.4343	   1.0922	  -0.0567
10800000000.0000	   3.2472	   2.4177	   1.0950	  -0.0564
10880000000.0000	   3.2362	   2.4200	   1.0962	  -0.0597
10960000000.0000	   3.2271	   2.4070	   1.0984	  -0.0575
11040000000.0000	   3.2034	   2.4039	   1.1015	  -0.0606
11120000000.0000	   3.2045	   2.3993	   1.1023	  -0.0622
11200000000.0000	   3.1668	   2.3896	   1.1092	  -0.0599
11280000000.0000	   3.1570	   2.4031	   1.1094	  -0.0656
11360000000.0000	   3.1435	   2.3859	   1.1145	  -0.0623
11440000000.0000	   3.1080	   2.4030	   1.1210	  -0.0670
11520000000.0000	   3.1084	   2.3941	   1.1190	  -0.0659
11600000000.0000	   3.0669	   2.3909	   1.1294	  -0.0640
11680000000.0000	   3.0568	   2.4142	   1.1286	  -0.0663
11760000000.0000	   3.0212	   2.3754	   1.1304	  -0.0536
11840000000.0000	   2.9779	   2.3989	   1.1283	  -0.0611
11920000000.0000	   2.9956	   2.3679	   1.1091	  -0.0588
12000000000.0000	   2.9718	   2.3381	   1.1099	  -0.0741
12080000000.0000	   2.9906	   2.3711	   1.1174	  -0.0932
12160000000.0000	   2.9707	   2.3662	   1.1265	  -0.0901
12240000000.0000	   2.9493	   2.3841	   1.1334	  -0.0926
12320000000.0000	   2.9441	   2.3780	   1.1334	  -0.0902
12400000000.0000	   2.9139	   2.3732	   1.1393	  -0.0892
12480000000.0000	   2.9007	   2.3759	   1.1374	  -0.0920
12560000000.0000	   2.8907	   2.3637	   1.1382	  -0.0884
12640000000.0000	   2.8678	   2.3628	   1.1394	  -0.0911
12720000000.0000	   2.8669	   2.3552	   1.1372	  -0.0917
12800000000.0000	   2.8511	   2.3490	   1.1386	  -0.0899
12880000000.0000	   2.8372	   2.3420	   1.1402	  -0.0933
12960000000.0000	   2.8375	   2.3340	   1.1381	  -0.0927
13040000000.0000	   2.8174	   2.3161	   1.1416	  -0.0932
13120000000.0000	   2.8130	   2.3292	   1.1391	  -0.0986
13200000000.0000	   2.8155	   2.2980	   1.1380	  -0.0925
13280000000.0000	   2.7858	   2.3001	   1.1417	  -0.0989
13360000000.0000	   2.8087	   2.3042	   1.1333	  -0.0978
13440000000.0000	   2.7855	   2.2780	   1.1384	  -0.0942
13520000000.0000	   2.7970	   2.3044	   1.1329	  -0.1011
13600000000.0000	   2.8101	   2.2681	   1.1310	  -0.0924
13680000000.0000	   2.7912	   2.2737	   1.1348	  -0.0985
13760000000.0000	   2.8220	   2.2681	   1.1260	  -0.0961
13840000000.0000	   2.8097	   2.2470	   1.1293	  -0.0928
13920000000.0000	   2.8320	   2.2626	   1.1228	  -0.0962
14000000000.0000	   2.8385	   2.2351	   1.1202	  -0.0870
14080000000.0000	   2.8294	   2.2547	   1.1167	  -0.0920
14160000000.0000	   2.8518	   2.2414	   1.1083	  -0.0877
14240000000.0000	   2.8317	   2.2315	   1.1102	  -0.0878
14320000000.0000	   2.8559	   2.2315	   1.1023	  -0.0891
14400000000.0000	   2.8514	   2.2091	   1.1057	  -0.0870
14480000000.0000	   2.8527	   2.2073	   1.1068	  -0.0862
14560000000.0000	   2.8453	   2.2008	   1.1082	  -0.0823
14640000000.0000	   2.8347	   2.1897	   1.1053	  -0.0775
14720000000.0000	   2.8264	   2.1679	   1.1012	  -0.0725
14800000000.0000	   2.8140	   2.1588	   1.1001	  -0.0746
14880000000.0000	   2.8152	   2.1385	   1.0971	  -0.0732
14960000000.0000	   2.7925	   2.1356	   1.1023	  -0.0774
15040000000.0000	   2.8079	   2.1297	   1.0991	  -0.0765
15120000000.0000	   2.7778	   2.1144	   1.1053	  -0.0751
15200000000.0000	   2.7757	   2.1323	   1.1043	  -0.0825
15280000000.0000	   2.7650	   2.1069	   1.1067	  -0.0771
15360000000.0000	   2.7337	   2.1238	   1.1104	  -0.0860
15440000000.0000	   2.7368	   2.1159	   1.1082	  -0.0834
15520000000.0000	   2.6981	   2.1165	   1.1148	  -0.0893
15600000000.0000	   2.7051	   2.1307	   1.1110	  -0.0930
15680000000.0000	   2.6776	   2.1063	   1.1161	  -0.0914
15760000000.0000	   2.6543	   2.1388	   1.1170	  -0.1036
15840000000.0000	   2.6598	   2.1213	   1.1128	  -0.0992
15920000000.0000	   2.6232	   2.1287	   1.1191	  -0.1071
16000000000.0000	   2.6384	   2.1391	   1.1123	  -0.1092
16080000000.0000	   2.6048	   2.1190	   1.1196	  -0.1097
16160000000.0000	   2.6035	   2.1457	   1.1141	  -0.1180
16240000000.0000	   2.6001	   2.1257	   1.1153	  -0.1133
16320000000.0000	   2.5840	   2.1376	   1.1163	  -0.1215
16400000000.0000	   2.5927	   2.1197	   1.1138	  -0.1192
16480000000.0000	   2.5730	   2.1148	   1.1153	  -0.1211
16560000000.0000	   2.5817	   2.1205	   1.1126	  -0.1230
16640000000.0000	   2.5782	   2.0999	   1.1143	  -0.1205
16720000000.0000	   2.5757	   2.0917	   1.1135	  -0.1218
16800000000.0000	   2.5704	   2.0763	   1.1142	  -0.1191
16880000000.0000	   2.5666	   2.0642	   1.1154	  -0.1183
16960000000.0000	   2.5720	   2.0465	   1.1155	  -0.1174
17040000000.0000	   2.5642	   2.0328	   1.1171	  -0.1167
17120000000.0000	   2.5661	   2.0101	   1.1184	  -0.1115
17200000000.0000	   2.5492	   2.0017	   1.1221	  -0.1135
17280000000.0000	   2.5622	   1.9898	   1.1193	  -0.1093
17360000000.0000	   2.5409	   1.9687	   1.1273	  -0.1087
17440000000.0000	   2.5413	   1.9745	   1.1262	  -0.1092
17520000000.0000	   2.5329	   1.9421	   1.1310	  -0.1041
17600000000.0000	   2.5179	   1.9499	   1.1325	  -0.1095
17680000000.0000	   2.5270	   1.9297	   1.1317	  -0.1026
17760000000.0000	   2.4938	   1.9266	   1.1406	  -0.1071
17840000000.0000	   2.5042	   1.9327	   1.1344	  -0.1070
17920000000.0000	   2.4806	   1.9036	   1.1436	  -0.1040
18000000000.0000	   2.4662	   1.9335	   1.1425	  -0.1130
