frequency	e'	e''	u'	u''
2000000000.0000	   7.1681	   4.3160	   1.6107	   0.1061
2080000000.0000	   7.0063	   4.2800	   1.6319	   0.1033
2160000000.0000	   6.8620	   4.2438	   1.6699	   0.0928
2240000000.0000	   6.7316	   4.1793	   1.6969	   0.1023
2320000000.0000	   6.5772	   4.1362	   1.7270	   0.1021
2400000000.0000	   6.4872	   4.0816	   1.7431	   0.1100
2480000000.0000	   6.3694	   4.0039	   1.7588	   0.1346
2560000000.0000	   6.2767	   3.9469	   1.7774	   0.1480
2640000000.0000	   6.2052	   3.8717	   1.7683	   0.1802
2720000000.0000	   6.1174	   3.8059	   1.7862	   0.2071
2800000000.0000	   6.0892	   3.7407	   1.7676	   0.2321
2880000000.0000	   6.0272	   3.6651	   1.7606	   0.2699
2960000000.0000	   6.0048	   3.6118	   1.7415	   0.2903
3040000000.0000	   5.9770	   3.5355	   1.7196	   0.3268
3120000000.0000	   5.9485	   3.4945	   1.6992	   0.3471
3200000000.0000	   5.9451	   3.4426	   1.6560	   0.3667
3280000000.0000	   5.9270	   3.4046	   1.6260	   0.3943
3360000000.0000	   5.9261	   3.3732	   1.5858	   0.4031
3440000000.0000	   5.9077	   3.3422	   1.5443	   0.4157
3520000000.0000	   5.9110	   3.3312	   1.5028	   0.4186
3600000000.0000	   5.8993	   3.3042	   1.4616	   0.4207
3680000000.0000	   5.8810	   3.3008	   1.4284	   0.4102
3760000000.0000	   5.8687	   3.3018	   1.3871	   0.3949
3840000000.0000	   5.8454	   3.3032	   1.3541	   0.3800
3920000000.0000	   5.8263	   3.3126	   1.3204	   0.3590
4000000000.0000	   5.7882	   3.3180	   1.3049	   0.3377
4080000000.0000	   5.7545	   3.3413	   1.2837	   0.3054
4160000000.0000	   5.7102	   3.3495	   1.2712	   0.2767
4240000000.0000	   5.6653	   3.3712	   1.2654	   0.2509
4320000000.0000	   5.6055	   3.3787	   1.2651	   0.2217
4400000000.0000	   5.5383	   3.3985	   1.2748	   0.1927
4480000000.0000	   5.4688	   3.4118	   1.2812	   0.1624
4560000000.0000	   5.3833	   3.4263	   1.3000	   0.1412
4640000000.0000	   5.3133	   3.4373	   1.3185	   0.1149
4720000000.0000	   5.2218	   3.4349	   1.3455	   0.0991
4800000000.0000	   5.1402	   3.4496	   1.3718	   0.0765
4880000000.0000	   5.0571	   3.4280	   1.4002	   0.0667
4960000000.0000	   4.9644	   3.4313	   1.4313	   0.0508
5040000000.0000	   4.8980	   3.4085	   1.4556	   0.0450
5120000000.0000	   4.8017	   3.3837	   1.4929	   0.0442
5200000000.0000	   4.7298	   3.3585	   1.5208	   0.0372
5280000000.0000	   4.6634	   3.3093	   1.5534	   0.0464
5360000000.0000	   4.6055	   3.2738	   1.5813	   0.0498
5440000000.0000	   4.5605	   3.2218	   1.6000	   0.0640
5520000000.0000	   4.5196	   3.1818	   1.6226	   0.0825
5600000000.0000	   4.5035	   3.1362	   1.6325	   0.1014
5680000000.0000	   4.4836	   3.0794	   1.6477	   0.1250
5760000000.0000	   4.4733	   3.0470	   1.6469	   0.1450
5840000000.0000	   4.4686	   3.0029	   1.6463	   0.1717
5920000000.0000	   4.4863	   2.9770	   1.6427	   0.1918
6000000000.0000	   4.4973	   2.9328	   1.6281	   0.2152
6080000000.0000	   4.5082	   2.9216	   1.6141	   0.2314
6160000000.0000	   4.5442	   2.8995	   1.5892	   0.2540
6240000000.0000	   4.5580	   2.8834	   1.5727	   0.2670
6320000000.0000	   4.5900	   2.8816	   1.5427	   0.2739
6400000000.0000	   4.6103	   2.8755	   1.5141	   0.2865
6480000000.0000	   4.6381	   2.8880	   1.4884	   0.2857
6560000000.0000	   4.6621	   2.8884	   1.4578	   0.2882
6640000000.0000	   4.6657	   2.9186	   1.4327	   0.2819
6720000000.0000	   4.6881	   2.9417	   1.4013	   0.2740
6800000000.0000	   4.6880	   2.9680	   1.3781	   0.2683
6880000000.0000	   4.6843	   2.9956	   1.3537	   0.2536
6960000000.0000	   4.6733	   3.0178	   1.3313	   0.2429
7040000000.0000	   4.6604	   3.0481	   1.3075	   0.2234
7120000000.0000	   4.6451	   3.0544	   1.2809	   0.2033
7200000000.0000	   4.6343	   3.0866	   1.2641	   0.1732
7280000000.0000	   4.6239	   3.1067	   1.2492	   0.1390
7360000000.0000	   4.5884	   3.1465	   1.2518	   0.1018
7440000000.0000	   4.5602	   3.1883	   1.2540	   0.0681
7520000000.0000	   4.5001	   3.2159	   1.2692	   0.0418
7600000000.0000	   4.4449	   3.2468	   1.2851	   0.0126
7680000000.0000	   4.3740	   3.2455	   1.3056	  -0.0042
7760000000.0000	   4.2946	   3.2648	   1.3311	  -0.0248
7840000000.0000	   4.2303	   3.2453	   1.3556	  -0.0379
7920000000.0000	   4.1389	   3.2345	   1.3870	  -0.0481
8000000000.0000	   4.0745	   3.2149	   1.4149	  -0.0567
8080000000.0000	   4.0008	   3.1729	   1.4484	  -0.0563
8160000000.0000	   3.9341	   3.1400	   1.4805	  -0.0569
8240000000.0000	   3.8811	   3.0877	   1.5122	  -0.0461
8320000000.0000	   3.8287	   3.0422	   1.5509	  -0.0374
8400000000.0000	   3.7920	   2.9841	   1.5801	  -0.0250
8480000000.0000	   3.7537	   2.9319	   1.6105	  -0.0056
8560000000.0000	   3.7325	   2.8869	   1.6347	   0.0189
8640000000.0000	   3.7177	   2.8343	   1.6614	   0.0455
8720000000.0000	   3.7060	   2.8030	   1.6841	   0.0705
8800000000.0000	   3.7024	   2.7702	   1.6993	   0.1011
8880000000.0000	   3.7056	   2.7579	   1.7100	   0.1295
8960000000.0000	   3.7149	   2.7373	   1.7169	   0.1625
9040000000.0000	   3.7151	   2.7455	   1.7238	   0.1877
9120000000.0000	   3.7300	   2.7504	   1.7199	   0.2157
9200000000.0000	   3.7237	   2.7693	   1.7196	   0.2398
9280000000.0000	   3.7324	   2.8021	   1.7093	   0.2636
9360000000.0000	   3.7162	   2.8321	   1.7039	   0.2869
9440000000.0000	   3.7024	   2.8823	   1.6922	   0.2998
9520000000.0000	   3.6819	   2.9143	   1.6790	   0.3217
9600000000.0000	   3.6367	   2.9680	   1.6666	   0.3338
9680000000.0000	   3.6042	   3.0085	   1.6466	   0.3511
9760000000.0000	   3.5360	   3.0394	   1.6378	   0.3698
9840000000.0000	   3.4681	   3.0723	   1.6211	   0.3808
9920000000.0000	   3.3842	   3.0784	   1.6066	   0.4025
10000000000.0000	   3.2943	   3.0994	   1.5903	   0.4134
10080000000.0000	   3.2174	   3.0756	   1.5673	   0.4362
10160000000.0000	   3.1086	   3.0505	   1.5502	   0.4531
10240000000.0000	   3.0230	   2.9987	   1.5172	   0.4713
10320000000.0000	   2.9315	   2.9257	   1.4898	   0.4919
10400000000.0000	   2.8591	   2.8501	   1.4523	   0.5027
10480000000.0000	   2.8040	   2.7449	   1.4120	   0.5141
10560000000.0000	   2.7572	   2.6504	   1.3761	   0.5150
10640000000.0000	   2.7279	   2.5467	   1.3338	   0.5083
10720000000.0000	   2.7174	   2.4532	   1.2963	   0.4927
10800000000.0000	   2.7099	   2.3571	   1.2661	   0.4724
10880000000.0000	   2.7113	   2.2783	   1.2427	   0.4430
10960000000.0000	   2.7245	   2.1964	   1.2251	   0.4153
11040000000.0000	   2.7273	   2.1258	   1.2195	   0.3855
11120000000.0000	   2.7520	   2.0610	   1.2176	   0.3539
11200000000.0000	   2.7544	   1.9926	   1.2259	   0.3348
11280000000.0000	   2.7745	   1.9494	   1.2357	   0.3068
11360000000.0000	   2.8055	   1.8841	   1.2502	   0.2969
11440000000.0000	   2.8148	   1.8444	   1.2710	   0.2835
11520000000.0000	   2.8593	   1.7930	   1.2804	   0.2787
11600000000.0000	   2.8756	   1.7462	   1.3028	   0.2853
11680000000.0000	   2.9214	   1.7302	   1.3113	   0.2869
11760000000.0000	   2.9475	   1.6746	   1.3171	   0.3129
11840000000.0000	   2.9671	   1.6680	   1.3192	   0.3138
11920000000.0000	   3.0301	   1.6194	   1.2912	   0.3253
12000000000.0000	   3.0638	   1.5673	   1.2885	   0.3201
12080000000.0000	   3.1552	   1.5724	   1.2921	   0.3115
12160000000.0000	   3.2176	   1.5674	   1.2890	   0.3310
12240000000.0000	   3.2712	   1.5908	   1.2820	   0.3398
12320000000.0000	   3.3321	   1.6012	   1.2587	   0.3540
12400000000.0000	   3.3677	   1.6215	   1.2355	   0.3624
12480000000.0000	   3.4231	   1.6499	   1.2052	   0.3583
12560000000.0000	   3.4659	   1.6740	   1.1744	   0.3539
12640000000.0000	   3.5048	   1.7134	   1.1491	   0.3378
12720000000.0000	   3.5475	   1.7586	   1.1218	   0.3207
12800000000.0000	   3.5765	   1.8101	   1.1011	   0.3036
12880000000.0000	   3.5997	   1.8632	   1.0855	   0.2799
12960000000.0000	   3.6233	   1.9201	   1.0678	   0.2553
13040000000.0000	   3.6206	   1.9659	   1.0576	   0.2309
13120000000.0000	   3.6202	   2.0427	   1.0466	   0.1980
13200000000.0000	   3.6157	   2.0815	   1.0354	   0.1774
13280000000.0000	   3.5688	   2.1459	   1.0381	   0.1455
13360000000.0000	   3.5641	   2.2068	   1.0289	   0.1156
13440000000.0000	   3.5032	   2.2361	   1.0347	   0.0939
13520000000.0000	   3.4752	   2.3022	   1.0378	   0.0603
13600000000.0000	   3.4328	   2.3036	   1.0414	   0.0421
13680000000.0000	   3.3610	   2.3329	   1.0578	   0.0142
13760000000.0000	   3.3312	   2.3379	   1.0636	  -0.0080
13840000000.0000	   3.2593	   2.3162	   1.0823	  -0.0231
13920000000.0000	   3.2190	   2.3170	   1.0970	  -0.0433
14000000000.0000	   3.1735	   2.2692	   1.1134	  -0.0488
14080000000.0000	   3.1166	   2.2519	   1.1339	  -0.0647
14160000000.0000	   3.0946	   2.1913	   1.1492	  -0.0685
14240000000.0000	   3.0441	   2.1306	   1.1756	  -0.0708
14320000000.0000	   3.0433	   2.0650	   1.1941	  -0.0700
14400000000.0000	   3.0345	   1.9807	   1.2223	  -0.0610
14480000000.0000	   3.0390	   1.9121	   1.2459	  -0.0468
14560000000.0000	   3.0474	   1.8404	   1.2672	  -0.0249
14640000000.0000	   3.0654	   1.7749	   1.2783	   0.0003
14720000000.0000	   3.0933	   1.6968	   1.2830	   0.0291
14800000000.0000	   3.1250	   1.6387	   1.2881	   0.0518
14880000000.0000	   3.1792	   1.5732	   1.2837	   0.0792
14960000000.0000	   3.2262	   1.5367	   1.2861	   0.1014
15040000000.0000	   3.3075	   1.5029	   1.2701	   0.1245
15120000000.0000	   3.3533	   1.4798	   1.2607	   0.1493
15200000000.0000	   3.4323	   1.4915	   1.2422	   0.1594
15280000000.0000	   3.4958	   1.4777	   1.2195	   0.1778
15360000000.0000	   3.5460	   1.5210	   1.2026	   0.1773
15440000000.0000	   3.6219	   1.5449	   1.1727	   0.1811
15520000000.0000	   3.6522	   1.5928	   1.1575	   0.1767
15600000000.0000	   3.7283	   1.6661	   1.1296	   0.1658
15680000000.0000	   3.7485	   1.7051	   1.1119	   0.1609
15760000000.0000	   3.7866	   1.8135	   1.0965	   0.1376
15840000000.0000	   3.8142	   1.8711	   1.0722	   0.1243
15920000000.0000	   3.7989	   1.9724	   1.0646	   0.1027
16000000000.0000	   3.8323	   2.0723	   1.0454	   0.0807
16080000000.0000	   3.7843	   2.1384	   1.0419	   0.0617
16160000000.0000	   3.7670	   2.2516	   1.0317	   0.0322
16240000000.0000	   3.7260	   2.3211	   1.0241	   0.0149
16320000000.0000	   3.6687	   2.4059	   1.0247	  -0.0124
16400000000.0000	   3.6162	   2.4482	   1.0233	  -0.0332
16480000000.0000	   3.5229	   2.4950	   1.0269	  -0.0564
16560000000.0000	   3.4542	   2.5364	   1.0303	  -0.0785
16640000000.0000	   3.3665	   2.5416	   1.0390	  -0.0962
16720000000.0000	   3.2781	   2.5355	   1.0503	  -0.1165
16800000000.0000	   3.1843	   2.5107	   1.0636	  -0.1315
16880000000.0000	   3.0970	   2.4727	   1.0812	  -0.1466
16960000000.0000	   3.0296	   2.4081	   1.0997	  -0.1574
17040000000.0000	   2.9525	   2.3450	   1.1231	  -0.1672
17120000000.0000	   2.9038	   2.2524	   1.1469	  -0.1688
17200000000.0000	   2.8426	   2.1656	   1.1760	  -0.1721
17280000000.0000	   2.8321	   2.0734	   1.1975	  -0.1659
17360000000.0000	   2.7984	   1.9650	   1.2309	  -0.1570
17440000000.0000	   2.8073	   1.8830	   1.2529	  -0.1436
17520000000.0000	   2.8187	   1.7704	   1.2788	  -0.1202
17600000000.0000	   2.8374	   1.6949	   1.2982	  -0.1016
17680000000.0000	   2.8953	   1.6016	   1.3080	  -0.0680
17760000000.0000	   2.9259	   1.5327	   1.3232	  -0.0403
17840000000.0000	   3.0133	   1.4766	   1.3158	  -0.0102
17920000000.0000	   3.0724	   1.4077	   1.3158	   0.0238
18000000000.0000	   3.1558	   1.3995	   1.3007	   0.0440
