frequency	e'	e''	u'	u''
2000000000.0000	  21.5628	  21.2141	   1.2268	   0.0206
2080000000.0000	  21.1228	  20.9244	   1.2205	   0.0192
2160000000.0000	  20.7945	  20.7458	   1.2263	   0.0047
2240000000.0000	  20.4848	  20.4750	   1.2257	  -0.0000
2320000000.0000	  20.1107	  20.2722	   1.2251	  -0.0151
2400000000.0000	  19.8842	  20.0899	   1.2204	  -0.0246
2480000000.0000	  19.5307	  19.8691	   1.2159	  -0.0276
2560000000.0000	  19.3154	  19.7439	   1.2144	  -0.0433
2640000000.0000	  19.0179	  19.5179	   1.2025	  -0.0390
2720000000.0000	  18.7571	  19.4273	   1.2081	  -0.0499
2800000000.0000	  18.5644	  19.2518	   1.1969	  -0.0539
2880000000.0000	  18.2809	  19.1429	   1.1975	  -0.0581
2960000000.0000	  18.1247	  19.0610	   1.1923	  -0.0683
3040000000.0000	  17.8744	  18.8772	   1.1901	  -0.0660
3120000000.0000	  17.6533	  18.8510	   1.1902	  -0.0771
3200000000.0000	  17.4367	  18.6624	   1.1786	  -0.0749
3280000000.0000	  17.1454	  18.6639	   1.1859	  -0.0748
3360000000.0000	  17.0195	  18.5530	   1.1759	  -0.0834
3440000000.0000	  16.6913	  18.3781	   1.1725	  -0.0756
3520000000.0000	  16.4741	  18.3735	   1.1712	  -0.0781
3600000000.0000	  16.2676	  18.1775	   1.1651	  -0.0760
3680000000.0000	  16.0130	  18.1220	   1.1648	  -0.0805
3760000000.0000	  15.8190	  17.9866	   1.1548	  -0.0839
3840000000.0000	  15.5157	  17.9057	   1.1586	  -0.0822
3920000000.0000	  15.2970	  17.8658	   1.1571	  -0.0880
4000000000.0000	  15.0435	  17.7231	   1.1583	  -0.0888
4080000000.0000	  14.7333	  17.6570	   1.1604	  -0.0883
4160000000.0000	  14.4619	  17.5723	   1.1633	  -0.0915
4240000000.0000	  14.1996	  17.5416	   1.1690	  -0.0944
4320000000.0000	  13.9363	  17.3977	   1.1700	  -0.0958
4400000000.0000	  13.6650	  17.3474	   1.1761	  -0.1002
4480000000.0000	  13.3871	  17.2203	   1.1773	  -0.1002
4560000000.0000	  13.0828	  17.1523	   1.1848	  -0.1029
4640000000.0000	  12.8341	  17.0793	   1.1883	  -0.1058
4720000000.0000	  12.5229	  16.9640	   1.1963	  -0.1059
4800000000.0000	  12.2436	  16.9659	   1.2017	  -0.1134
4880000000.0000	  12.0110	  16.8458	   1.2069	  -0.1140
4960000000.0000	  11.7240	  16.8361	   1.2115	  -0.1230
5040000000.0000	  11.5408	  16.7652	   1.2119	  -0.1249
5120000000.0000	  11.2595	  16.6935	   1.2187	  -0.1283
5200000000.0000	  11.0819	  16.6775	   1.2173	  -0.1367
5280000000.0000	  10.8552	  16.5582	   1.2210	  -0.1365
5360000000.0000	  10.6395	  16.5934	   1.2217	  -0.1482
5440000000.0000	  10.4705	  16.5177	   1.2190	  -0.1515
5520000000.0000	  10.2810	  16.5181	   1.2187	  -0.1582
5600000000.0000	  10.1482	  16.4674	   1.2125	  -0.1628
5680000000.0000	   9.9576	  16.4198	   1.2142	  -0.1684
5760000000.0000	   9.8350	  16.4239	   1.2055	  -0.1753
5840000000.0000	   9.6615	  16.3781	   1.2035	  -0.1803
5920000000.0000	   9.5313	  16.3736	   1.1996	  -0.1876
6000000000.0000	   9.4286	  16.3468	   1.1923	  -0.1949
6080000000.0000	   9.2174	  16.3239	   1.1896	  -0.2022
6160000000.0000	   9.1708	  16.3296	   1.1812	  -0.2064
6240000000.0000	   8.9610	  16.2745	   1.1826	  -0.2154
6320000000.0000	   8.8689	  16.2735	   1.1740	  -0.2232
6400000000.0000	   8.6896	  16.2243	   1.1719	  -0.2285
6480000000.0000	   8.5587	  16.2368	   1.1682	  -0.2386
6560000000.0000	   8.4677	  16.1518	   1.1638	  -0.2423
6640000000.0000	   8.2401	  16.1083	   1.1639	  -0.2514
6720000000.0000	   8.1144	  16.0504	   1.1609	  -0.2552
6800000000.0000	   7.9032	  16.0159	   1.1624	  -0.2648
6880000000.0000	   7.7767	  15.9252	   1.1606	  -0.2695
6960000000.0000	   7.5830	  15.8241	   1.1636	  -0.2747
7040000000.0000	   7.4104	  15.7824	   1.1628	  -0.2836
7120000000.0000	   7.2859	  15.6148	   1.1642	  -0.2844
7200000000.0000	   7.0547	  15.5409	   1.1690	  -0.2930
7280000000.0000	   6.9465	  15.3787	   1.1710	  -0.2936
7360000000.0000	   6.7129	  15.2474	   1.1782	  -0.3018
7440000000.0000	   6.6229	  15.1321	   1.1772	  -0.3037
7520000000.0000	   6.4244	  14.9139	   1.1879	  -0.3059
7600000000.0000	   6.3006	  14.8246	   1.1882	  -0.3123
7680000000.0000	   6.2307	  14.5920	   1.1946	  -0.3087
7760000000.0000	   6.0436	  14.4244	   1.2031	  -0.3133
7840000000.0000	   5.9944	  14.2765	   1.2061	  -0.3136
7920000000.0000	   5.8178	  14.0727	   1.2173	  -0.3166
8000000000.0000	   5.7514	  13.9679	   1.2186	  -0.3182
8080000000.0000	   5.6297	  13.7354	   1.2307	  -0.3166
8160000000.0000	   5.4979	  13.6333	   1.2356	  -0.3223
8240000000.0000	   5.4481	  13.4641	   1.2415	  -0.3185
8320000000.0000	   5.3088	  13.2849	   1.2538	  -0.3217
8400000000.0000	   5.2211	  13.1483	   1.2587	  -0.3237
8480000000.0000	   5.0629	  12.9895	   1.2701	  -0.3276
8560000000.0000	   4.9881	  12.8669	   1.2746	  -0.3270
8640000000.0000	   4.8961	  12.7198	   1.2828	  -0.3291
8720000000.0000	   4.7620	  12.5608	   1.2936	  -0.3316
8800000000.0000	   4.6322	  12.4460	   1.3016	  -0.3368
8880000000.0000	   4.5294	  12.3252	   1.3081	  -0.3388
8960000000.0000	   4.4562	  12.2028	   1.3142	  -0.3410
9040000000.0000	   4.3186	  12.0982	   1.3220	  -0.3482
9120000000.0000	   4.2427	  11.9961	   1.3259	  -0.3505
9200000000.0000	   4.1335	  11.8851	   1.3319	  -0.3565
9280000000.0000	   4.0778	  11.8083	   1.3329	  -0.3571
9360000000.0000	   3.9591	  11.6553	   1.3457	  -0.3610
9440000000.0000	   3.8557	  11.6503	   1.3421	  -0.3734
9520000000.0000	   3.8669	  11.5079	   1.3441	  -0.3668
9600000000.0000	   3.7406	  11.4507	   1.3468	  -0.3765
9680000000.0000	   3.7556	  11.3979	   1.3422	  -0.3738
9760000000.0000	   3.6660	  11.2735	   1.3509	  -0.3780
9840000000.0000	   3.6378	  11.2281	   1.3449	  -0.3815
9920000000.0000	   3.6142	  11.0939	   1.3517	  -0.3783
10000000000.0000	   3.5418	  11.0645	   1.3506	  -0.3865
10080000000.0000	   3.5813	  11.0101	   1.3459	  -0.3833
10160000000.0000	   3.4972	  10.8835	   1.3548	  -0.3872
10240000000.0000	   3.5060	  10.8564	   1.3472	  -0.3876
10320000000.0000	   3.4690	  10.7213	   1.3564	  -0.3867
10400000000.0000	   3.4370	  10.6754	   1.3546	  -0.3906
10480000000.0000	   3.4404	  10.5751	   1.3574	  -0.3889
10560000000.0000	   3.3612	  10.4299	   1.3717	  -0.3917
10640000000.0000	   3.3519	  10.3394	   1.3733	  -0.3904
10720000000.0000	   3.3090	  10.2535	   1.3803	  -0.3925
10800000000.0000	   3.2926	  10.1227	   1.3879	  -0.3913
10880000000.0000	   3.2273	  10.0455	   1.3942	  -0.3970
10960000000.0000	   3.2307	   9.9121	   1.4037	  -0.3912
11040000000.0000	   3.1539	   9.8147	   1.4124	  -0.3977
11120000000.0000	   3.1302	   9.7503	   1.4162	  -0.4004
11200000000.0000	   3.0896	   9.5749	   1.4342	  -0.3958
11280000000.0000	   3.0170	   9.5425	   1.4367	  -0.4058
11360000000.0000	   3.0271	   9.4072	   1.4499	  -0.3988
11440000000.0000	   2.9056	   9.2924	   1.4664	  -0.4089
11520000000.0000	   2.9375	   9.2380	   1.4665	  -0.4031
11600000000.0000	   2.8630	   9.0826	   1.4886	  -0.4044
11680000000.0000	   2.8280	   9.0389	   1.4925	  -0.4044
11760000000.0000	   2.9186	   8.8591	   1.5047	  -0.3758
11840000000.0000	   2.8389	   8.8094	   1.5058	  -0.3797
11920000000.0000	   2.9947	   8.8733	   1.4706	  -0.3599
12000000000.0000	   2.9274	   8.8772	   1.4589	  -0.3817
12080000000.0000	   2.7170	   8.9282	   1.4634	  -0.4267
12160000000.0000	   2.6936	   8.7863	   1.4848	  -0.4234
12240000000.0000	   2.6029	   8.6874	   1.5016	  -0.4299
12320000000.0000	   2.6247	   8.6206	   1.5065	  -0.4218
12400000000.0000	   2.5919	   8.5155	   1.5197	  -0.4187
12480000000.0000	   2.5900	   8.4731	   1.5184	  -0.4162
12560000000.0000	   2.6024	   8.4010	   1.5234	  -0.4084
12640000000.0000	   2.5834	   8.3433	   1.5248	  -0.4079
12720000000.0000	   2.5854	   8.3176	   1.5216	  -0.4070
12800000000.0000	   2.6025	   8.2484	   1.5245	  -0.3987
12880000000.0000	   2.5757	   8.2010	   1.5256	  -0.4021
12960000000.0000	   2.6014	   8.1710	   1.5213	  -0.3968
13040000000.0000	   2.5993	   8.0968	   1.5254	  -0.3946
13120000000.0000	   2.5646	   8.0961	   1.5199	  -0.4018
13200000000.0000	   2.6285	   8.0505	   1.5156	  -0.3889
13280000000.0000	   2.5724	   7.9942	   1.5189	  -0.3970
13360000000.0000	   2.6094	   8.0369	   1.5035	  -0.3945
13440000000.0000	   2.6246	   7.9325	   1.5117	  -0.3867
13520000000.0000	   2.5799	   7.9881	   1.5004	  -0.3999
13600000000.0000	   2.6728	   7.9520	   1.4940	  -0.3844
13680000000.0000	   2.6034	   7.9134	   1.4981	  -0.3975
13760000000.0000	   2.6641	   7.9659	   1.4799	  -0.3940
13840000000.0000	   2.6845	   7.8882	   1.4863	  -0.3880
13920000000.0000	   2.6793	   7.9542	   1.4710	  -0.3970
14000000000.0000	   2.7609	   7.9134	   1.4673	  -0.3815
14080000000.0000	   2.6975	   7.9265	   1.4634	  -0.3932
14160000000.0000	   2.7733	   7.9644	   1.4466	  -0.3850
14240000000.0000	   2.7600	   7.8960	   1.4523	  -0.3843
14320000000.0000	   2.7676	   7.9353	   1.4401	  -0.3895
14400000000.0000	   2.7785	   7.8733	   1.4465	  -0.3892
14480000000.0000	   2.7694	   7.8414	   1.4508	  -0.3907
14560000000.0000	   2.8090	   7.7804	   1.4553	  -0.3814
14640000000.0000	   2.8495	   7.7447	   1.4538	  -0.3696
14720000000.0000	   2.9072	   7.7062	   1.4491	  -0.3567
14800000000.0000	   2.8911	   7.6952	   1.4456	  -0.3606
14880000000.0000	   2.9309	   7.6752	   1.4405	  -0.3556
14960000000.0000	   2.8820	   7.5954	   1.4537	  -0.3613
15040000000.0000	   2.9004	   7.6116	   1.4478	  -0.3623
15120000000.0000	   2.8865	   7.5147	   1.4617	  -0.3578
15200000000.0000	   2.8383	   7.5246	   1.4615	  -0.3689
15280000000.0000	   2.8747	   7.4523	   1.4683	  -0.3576
15360000000.0000	   2.7822	   7.4147	   1.4782	  -0.3716
15440000000.0000	   2.8082	   7.4076	   1.4762	  -0.3667
15520000000.0000	   2.7366	   7.3176	   1.4929	  -0.3732
15600000000.0000	   2.7097	   7.3629	   1.4856	  -0.3812
15680000000.0000	   2.7254	   7.2720	   1.4968	  -0.3723
15760000000.0000	   2.6166	   7.2818	   1.4998	  -0.3919
15840000000.0000	   2.6574	   7.2695	   1.4958	  -0.3816
15920000000.0000	   2.5759	   7.2150	   1.5085	  -0.3927
16000000000.0000	   2.5801	   7.2709	   1.4958	  -0.3947
16080000000.0000	   2.5642	   7.1787	   1.5103	  -0.3896
16160000000.0000	   2.4963	   7.2263	   1.5031	  -0.4040
16240000000.0000	   2.5303	   7.1941	   1.5055	  -0.3931
16320000000.0000	   2.4621	   7.1844	   1.5078	  -0.4038
16400000000.0000	   2.4892	   7.1917	   1.5006	  -0.3977
16480000000.0000	   2.4652	   7.1570	   1.5050	  -0.3960
16560000000.0000	   2.4599	   7.1823	   1.4979	  -0.3976
16640000000.0000	   2.4691	   7.1435	   1.5005	  -0.3907
16720000000.0000	   2.4576	   7.1422	   1.4968	  -0.3907
16800000000.0000	   2.4695	   7.1160	   1.4961	  -0.3826
16880000000.0000	   2.4653	   7.0968	   1.4954	  -0.3797
16960000000.0000	   2.4807	   7.0728	   1.4926	  -0.3750
17040000000.0000	   2.4594	   7.0434	   1.4938	  -0.3731
17120000000.0000	   2.4957	   7.0074	   1.4927	  -0.3614
17200000000.0000	   2.4713	   6.9539	   1.4968	  -0.3615
17280000000.0000	   2.4892	   6.9585	   1.4892	  -0.3558
17360000000.0000	   2.4758	   6.8586	   1.5037	  -0.3504
17440000000.0000	   2.4545	   6.8555	   1.4995	  -0.3520
17520000000.0000	   2.4892	   6.7781	   1.5045	  -0.3393
17600000000.0000	   2.4279	   6.7446	   1.5093	  -0.3479
17680000000.0000	   2.4771	   6.7234	   1.5036	  -0.3360
17760000000.0000	   2.4409	   6.6232	   1.5201	  -0.3352
17840000000.0000	   2.4371	   6.6409	   1.5104	  -0.3369
17920000000.0000	   2.4637	   6.5473	   1.5206	  -0.3250
18000000000.0000	   2.3912	   6.5284	   1.5250	  -0.3373
